0	0	0
0.005	0.00082778	0
0.01	0.00167357	0
0.015	0.00353726	0
0.02	0.00441875	0
0.025	0.00831791	0
0.03	0.0112346	0
0.035	0.0151688	0
0.04	0.0181203	0
0.045	0.0210891	0
0.05	0.024075	0
0.055	0.0270779	0
0.06	0.0300977	0
0.065	0.0321342	0
0.07	0.0351875	0
0.075	0.0382573	0
0.08	0.0413436	0
0.085	0.0434462	0
0.09	0.0455651	0
0.095	0.0477	0
0.1	0.050851	0
0.105	0.0500179	0
0.11	0.0492006	0
0.115	0.0493989	0
0.12	0.0486128	0
0.125	0.0458422	0
0.13	0.0430869	0
0.135	0.0403468	0
0.14	0.0376218	0
0.145	0.0349119	0
0.15	0.0322169	0
0.155	0.0295366	0
0.16	0.026871	0
0.165	0.02522	0
0.17	0.0235834	0
0.175	0.0229612	0
0.18	0.0213532	0
0.185	0.0217593	0
0.19	0.0211794	0
0.195	0.0216135	0
0.2	0.0220613	0
0.205	0.0225228	0
0.21	0.0239978	0
0.215	0.0244863	0
0.22	0.0259881	0
0.225	0.0255032	0
0.23	0.0260314	0
0.235	0.0265726	0
0.24	0.0271266	0
0.245	0.0256935	0
0.25	0.025273	0
0.255	0.0248651	0
0.26	0.0244697	0
0.265	0.0240866	0
0.27	0.0227157	0
0.275	0.0223569	0
0.28	0.0220101	0
0.285	0.0206753	0
0.29	0.0203522	0
0.295	0.0190408	0
0.3	0.0187409	0
0.305	0.0174525	0
0.31	0.0161754	0
0.315	0.0149096	0
0.32	0.0136548	0
0.325	0.0114111	0
0.33	0.0101783	0
0.335	0.00895623	0
0.34	0.00774484	0
0.345	0.00554402	0
0.35	0.00435364	0
0.355	0.0031736	0
0.36	0.00200378	0
0.365	0.000844079	0
0.37	-0.000305621	0
0.375	-0.000445431	0
0.38	-0.00157546	0
0.385	-0.00069582	0
0.39	-0.000806623	0
0.395	9.20211e-05	0
0.4	0	0
0.405	-8.27972e-05	0
0.41	0.000843518	0
0.415	0.000778835	0
0.42	0.000723042	0
0.425	0.00167603	0
0.43	0.00163768	0
0.435	0.00260789	0
0.44	0.00258655	0
0.445	0.00457354	0
0.45	0.00556875	0
0.455	0.00757207	0
0.46	0.0085834	0
0.465	0.00760261	0
0.47	0.0066296	0
0.475	0.00566426	0
0.48	0.00470647	0
0.485	0.000756128	0
0.49	-0.00218688	0
0.495	-0.00512267	0
0.5	-0.00805135	0
0.505	-0.00997303	0
0.51	-0.0118878	0
0.515	-0.0137958	0
0.52	-0.0156972	0
0.525	-0.016592	0
0.53	-0.0174803	0
0.535	-0.0173623	0
0.54	-0.0182381	0
0.545	-0.0201078	0
0.55	-0.0219715	0
0.555	-0.0238293	0
0.56	-0.0256814	0
0.565	0.00447227	0
0.57	0.0346315	0
0.575	0.0647961	0
0.58	0.094966	0
0.585	0.130141	0
0.59	0.166322	0
0.595	0.202507	0
0.6	0.238697	1
0.605	0.201892	0
0.61	0.165092	0
0.615	0.128296	0
0.62	0.0915043	0
0.625	0.0447172	0
0.63	-0.00106565	0
0.635	-0.0478444	0
0.64	-0.0926191	0
0.645	-0.09039	0
0.65	-0.0881571	0
0.655	-0.0859205	0
0.66	-0.0836804	0
0.665	-0.0744369	0
0.67	-0.06519	0
0.675	-0.0579399	0
0.68	-0.0486866	0
0.685	-0.0474304	0
0.69	-0.0461714	0
0.695	-0.0449095	0
0.7	-0.043645	0
0.705	-0.0443779	0
0.71	-0.0441084	0
0.715	-0.0448365	0
0.72	-0.0445625	0
0.725	-0.0432863	0
0.73	-0.0430082	0
0.735	-0.0417281	0
0.74	-0.0414463	0
0.745	-0.0401629	0
0.75	-0.0388779	0
0.755	-0.0375914	0
0.76	-0.0363036	0
0.765	-0.0370146	0
0.77	-0.0367245	0
0.775	-0.0364335	0
0.78	-0.0361415	0
0.785	-0.0338488	0
0.79	-0.0325554	0
0.795	-0.0302614	0
0.8	-0.028967	0
0.805	-0.0246723	0
0.81	-0.0213774	0
0.815	-0.0170824	0
0.82	-0.0127874	0
0.825	-0.0104925	0
0.83	-0.00719782	0
0.835	-0.0049035	0
0.84	-0.00160964	0
0.845	0.000683663	0
0.85	0.00397629	0
0.855	0.00626812	0
0.86	0.00955906	0
0.865	0.011849	0
0.87	0.0151378	0
0.875	0.0184254	0
0.88	0.0217116	0
0.885	0.0229964	0
0.89	0.0232796	0
0.895	0.0245611	0
0.9	0.0248409	0
0.905	0.0231187	0
0.91	0.0213945	0
0.915	0.0186682	0
0.92	0.0169397	0
0.925	0.0142089	0
0.93	0.0124755	0
0.935	0.00973964	0
0.94	0.00700107	0
0.945	0.00625971	0
0.95	0.00651545	0
0.955	0.00576817	0
0.96	0.00501778	0
0.965	0.00526415	0
0.97	0.00550717	0
0.975	0.00574674	0
0.98	0.00698273	0
0.985	0.00721505	0
0.99	0.00844358	0
0.995	0.0096682	0
1	0.0108888	0
1.005	0.0121053	0
1.01	0.0133176	0
1.015	0.0155255	0
1.02	0.0167289	0
1.025	0.0169278	0
1.03	0.018122	0
1.035	0.0183114	0
1.04	0.0194959	0
1.045	0.0186754	0
1.05	0.0188497	0
1.055	0.0180188	0
1.06	0.0181826	0
1.065	0.0183409	0
1.07	0.0174937	0
1.075	0.0176407	0
1.08	0.016782	0
1.085	0.0159174	0
1.09	0.0160467	0
1.095	0.0151699	0
1.1	0.0152869	0
1.105	0.0143976	0
1.11	0.0135017	0
1.115	0.0125993	0
1.12	0.0116903	0
1.125	0.0107744	0
1.13	0.0098516	0
1.135	0.00892181	0
1.14	0.00798488	0
1.145	0.00704072	0
1.15	0.0060892	0
1.155	0.00513022	0
1.16	0.00516368	0
1.165	0.00418944	0
1.17	0.00420741	0
1.175	0.00321748	0
1.18	0.00321952	0
1.185	0.00221344	0
1.19	0.00219912	0
1.195	0.00117644	0
1.2	0.0011453	0
1.205	0.000105591	0
1.21	5.71939e-05	0
1.215	0	0
1.22	-6.60465e-05	0
1.225	0.000859219	0
1.23	0.000776017	0
1.235	0.00168457	0
1.24	0.00158509	0
1.245	0.0034778	0
1.25	0.00436293	0
1.255	0.00624069	0
1.26	0.0071113	0
1.265	0.00797498	0
1.27	0.00883195	0
1.275	0.00868244	0
1.28	0.00952666	0
1.285	0.00736483	0
1.29	0.00619717	0
1.295	0.0040239	0
1.3	0.00184525	0
1.305	-0.00133858	0
1.31	-0.00352735	0
1.315	-0.00672085	0
1.32	-0.00991885	0
1.325	-0.0121211	0
1.33	-0.0133275	0
1.335	-0.0155377	0
1.34	-0.0177516	0
1.345	-0.0179688	0
1.35	-0.0181893	0
1.355	-0.0194127	0
1.36	-0.0196388	0
1.365	-0.0198675	0
1.37	-0.0210985	0
1.375	-0.0213316	0
1.38	-0.0225665	0
1.385	0.0191969	0
1.39	0.0619589	0
1.395	0.10372	0
1.4	0.146479	0
1.405	0.168238	0
1.41	0.190997	0
1.415	0.212755	1
1.42	0.235513	0
1.425	0.182271	0
1.43	0.12903	0
1.435	0.0757886	0
1.44	0.0225484	0
1.445	-0.00869081	0
1.45	-0.0399288	0
1.455	-0.0701654	0
1.46	-0.1014	0
1.465	-0.0946334	0
1.47	-0.0878644	0
1.475	-0.081093	0
1.48	-0.0753191	0
1.485	-0.0705425	0
1.49	-0.0657629	0
1.495	-0.0609801	0
1.5	-0.0561939	0
1.505	-0.0564041	0
1.51	-0.0576104	0
1.515	-0.0578127	0
1.52	-0.0590106	0
1.525	-0.0592041	0
1.53	-0.0593928	0
1.535	-0.0595766	0
1.54	-0.0607552	0
1.545	-0.0599284	0
1.55	-0.059096	0
1.555	-0.0582577	0
1.56	-0.0574135	0
1.565	-0.0565629	0
1.57	-0.0557059	0
1.575	-0.0548421	0
1.58	-0.0549714	0
1.585	-0.0540936	0
1.59	-0.0542084	0
1.595	-0.0533156	0
1.6	-0.053415	0
1.605	-0.0515063	0
1.61	-0.0505894	0
1.615	-0.0486641	0
1.62	-0.04673	0
1.625	-0.0437871	0
1.63	-0.039835	0
1.635	-0.0368735	0
1.64	-0.0329025	0
1.645	-0.0309217	0
1.65	-0.0279309	0
1.655	-0.0259299	0
1.66	-0.0229184	0
1.665	-0.0208962	0
1.67	-0.0188632	0
1.675	-0.016819	0
1.68	-0.0137635	0
1.685	-0.0116965	0
1.69	-0.00861764	0
1.695	-0.00652684	0
1.7	-0.00342383	0
1.705	-0.00330839	0
1.71	-0.0031803	0
1.715	-0.00303934	0
1.72	-0.00188529	0
1.725	-0.00471793	0
1.73	-0.00753704	0
1.735	-0.0103424	0
1.74	-0.0131338	0
1.745	-0.015911	0
1.75	-0.0186738	0
1.755	-0.0214219	0
1.76	-0.0241553	0
1.765	-0.0248735	0
1.77	-0.0255765	0
1.775	-0.0272639	0
1.78	-0.0279356	0
1.785	-0.0275914	0
1.79	-0.027231	0
1.795	-0.0268542	0
1.8	-0.0264608	0
1.805	-0.0250505	0
1.81	-0.0236233	0
1.815	-0.0221787	0
1.82	-0.0197167	0
1.825	-0.0192369	0
1.83	-0.0177392	0
1.835	-0.0162234	0
1.84	-0.0146892	0
1.845	-0.0141364	0
1.85	-0.0145648	0
1.855	-0.0139742	0
1.86	-0.0133643	0
1.865	-0.013735	0
1.87	-0.014086	0
1.875	-0.013417	0
1.88	-0.0137279	0
1.885	-0.0140185	0
1.89	-0.0132885	0
1.895	-0.0135378	0
1.9	-0.012766	0
1.905	-0.012973	0
1.91	-0.0131585	0
1.915	-0.0123224	0
1.92	-0.0124643	0
1.925	-0.0125842	0
1.93	-0.0136818	0
1.935	-0.0137567	0
1.94	-0.013809	0
1.945	-0.0148382	0
1.95	-0.0148442	0
1.955	-0.0148268	0
1.96	-0.0147858	0
1.965	-0.0137209	0
1.97	-0.0136318	0
1.975	-0.0125185	0
1.98	-0.0113807	0
1.985	-0.0112181	0
1.99	-0.0100305	0
1.995	-0.00881778	0
2	-0.00757962	0
2.005	-0.00631583	0
2.01	-0.0050262	0
2.015	-0.00371049	0
2.02	-0.0013685	0
2.025	0	0
2.03	0.00139511	0
2.035	0.00381645	0
2.04	0.00526353	0
2.045	0.00673585	0
2.05	0.00923291	0
2.055	0.0107542	0
2.06	0.0132993	0
2.065	0.0148676	0
2.07	0.0164587	0
2.075	0.019072	0
2.08	0.0207071	0
2.085	0.0213635	0
2.09	0.0220406	0
2.095	0.021738	0
2.1	0.0224552	0
2.105	0.0221917	0
2.11	0.020947	0
2.115	0.0207205	0
2.12	0.0205119	0
2.125	0.0213206	0
2.13	0.022146	0
2.135	0.0229878	0
2.14	0.0228454	0
2.145	0.0247183	0
2.15	0.026606	0
2.155	0.028508	0
2.16	0.0304239	0
2.165	0.0313531	0
2.17	0.0312951	0
2.175	0.0322495	0
2.18	0.0322157	0
2.185	0.0431932	0
2.19	0.0531816	0
2.195	0.0641804	0
2.2	0.076189	0
2.205	0.105207	0
2.21	0.135234	0
2.215	0.165269	0
2.22	0.195312	0
2.225	0.179363	1
2.23	0.16342	0
2.235	0.147484	0
2.24	0.132553	0
2.245	0.0986281	0
2.25	0.065708	0
2.255	0.0327923	0
2.26	-0.00111956	0
2.265	0.00497202	0
2.27	0.0110665	0
2.275	0.0171634	0
2.28	0.0232622	0
2.285	0.0323625	0
2.29	0.0404636	0
2.295	0.0485652	0
2.3	0.0566667	0
2.305	0.0607677	0
2.31	0.0638676	0
2.315	0.0679659	0
2.32	0.0710622	0
2.325	0.0741559	0
2.33	0.0762466	0
2.335	0.0793338	0
2.34	0.0814169	0
2.345	0.0844954	0
2.35	0.087569	0
2.355	0.090637	0
2.36	0.093699	0
2.365	0.0957544	0
2.37	0.0978029	0
2.375	0.100844	0
2.38	0.102877	0
2.385	0.103901	0
2.39	0.104917	0
2.395	0.106923	0
2.4	0.107918	0
2.405	0.0789039	0
2.41	0.0498784	0
2.415	0.0208414	0
2.42	-0.00820764	0
2.425	-0.00126911	0
2.43	0.00465644	0
2.435	0.0105685	0
2.44	0.0164666	0
2.445	0.0543503	0
2.45	0.092219	0
2.455	0.130072	0
2.46	0.16691	0
2.465	0.17173	0
2.47	0.176534	0
2.475	0.181321	0
2.48	0.186089	0
2.485	0.19084	0
2.49	0.196571	0
2.495	0.201282	0
2.5	0.206974	0
2.505	0.209646	0
2.51	0.213296	0
2.515	0.215925	0
2.52	0.219533	0
2.525	0.220117	0
2.53	0.219679	0
2.535	0.220218	0
2.54	0.220733	0
2.545	0.188223	0
2.55	0.155688	0
2.555	0.123128	0
2.56	0.0905423	0
2.565	0.0599301	0
2.57	0.028291	0
2.575	-0.00337549	0
2.58	-0.0350698	0
2.585	-0.0327925	0
2.59	-0.030544	0
2.595	-0.0283249	0
2.6	-0.0271356	0
2.605	-0.0239767	0
2.61	-0.0208486	0
2.615	-0.0177518	0
2.62	-0.0146869	0
2.625	-0.0126543	0
2.63	-0.0106545	0
2.635	-0.00868798	0
2.64	-0.00775531	0
2.645	-0.00585695	0
2.65	-0.0049934	0
2.655	-0.00316515	0
2.66	-0.00237269	0
2.665	-0.000616533	0
2.67	0.000102836	0
2.675	0.00178492	0
2.68	0.00242922	0
2.685	0.00403524	0
2.69	0.00460248	0
2.695	0.00513045	0
2.7	0.00561866	0
2.705	0.0060666	0
2.71	0.00647378	0
2.715	0.0068397	0
2.72	0.00616387	0
2.725	0.0064458	0
2.73	0.00568497	0
2.735	0.00488091	0
2.74	0.0040331	0
2.745	0.00314107	0
2.75	0.0022043	0
2.755	0.0022223	0
2.76	0.00119459	0
2.765	0.000120651	0
2.77	0	0
2.775	-0.00116769	0
2.78	-0.00238207	0
2.785	-0.0016426	0
2.79	-0.00194876	0
2.795	-0.00230003	0
2.8	-0.00269586	0
2.805	-0.000135745	0
2.81	0.00238085	0
2.815	0.00485446	0
2.82	0.0072856	0
2.825	0.00767481	0
2.83	0.00802261	0
2.835	0.00732953	0
2.84	0.00759609	0
2.845	0.00382283	0
2.85	1.02686e-05	0
2.855	-0.00384106	0
2.86	-0.00773064	0
2.865	-0.0106579	0
2.87	-0.0146224	0
2.875	-0.0186235	0
2.88	-0.0226608	0
2.885	-0.0257337	0
2.89	-0.0288417	0
2.895	-0.0319842	0
2.9	-0.0351607	0
2.905	-0.0393707	0
2.91	-0.0436137	0
2.915	-0.0478891	0
2.92	-0.0531965	0
2.925	-0.0325352	0
2.93	-0.0119048	0
2.935	0.00869527	0
2.94	0.0282655	0
2.945	0.130807	0
2.95	0.232319	0
2.955	0.333803	0
2.96	0.436259	0
2.965	0.446688	0
2.97	0.457091	1
2.975	0.467467	0
2.98	0.477818	0
2.985	0.364144	0
2.99	0.251445	0
2.995	0.139722	0
3	0.0269763	0
3.005	-0.0127929	0
3.01	-0.0525844	0
3.015	-0.0913979	0
3.02	-0.131233	0
3.025	-0.125088	0
3.03	-0.118964	0
3.035	-0.11286	0
3.04	-0.107775	0
3.045	-0.107709	0
3.05	-0.107661	0
3.055	-0.10763	0
3.06	-0.108617	0
3.065	-0.10962	0
3.07	-0.11164	0
3.075	-0.113675	0
3.08	-0.115725	0
3.085	-0.117789	0
3.09	-0.118868	0
3.095	-0.12096	0
3.1	-0.123065	0
3.105	-0.124182	0
3.11	-0.126311	0
3.115	-0.127451	0
3.12	-0.129603	0
3.125	-0.132764	0
3.13	-0.134936	0
3.135	-0.138116	0
3.14	-0.141305	0
3.145	-0.143503	0
3.15	-0.146708	0
3.155	-0.14992	0
3.16	-0.153139	0
3.165	-0.154364	0
3.17	-0.156594	0
3.175	-0.157829	0
3.18	-0.159069	0
3.185	-0.159313	0
3.19	-0.15856	0
3.195	-0.158811	0
3.2	-0.158063	0
3.205	-0.156317	0
3.21	-0.154573	0
3.215	-0.15283	0
3.22	-0.152086	0
3.225	-0.149343	0
3.23	-0.146598	0
3.235	-0.144853	0
3.24	-0.142105	0
3.245	-0.141355	0
3.25	-0.140602	0
3.255	-0.138846	0
3.26	-0.138086	0
3.265	-0.140321	0
3.27	-0.142552	0
3.275	-0.143776	0
3.28	-0.145995	0
3.285	-0.150207	0
3.29	-0.154412	0
3.295	-0.15861	0
3.3	-0.163799	0
3.305	-0.166979	0
3.31	-0.17115	0
3.315	-0.174312	0
3.32	-0.178463	0
3.325	-0.180603	0
3.33	-0.182732	0
3.335	-0.184849	0
3.34	-0.187954	0
3.345	-0.189046	0
3.35	-0.191124	0
3.355	-0.193189	0
3.36	-0.195238	0
3.365	-0.196273	0
3.37	-0.197292	0
3.375	-0.198295	0
3.38	-0.200282	0
3.385	-0.201251	0
3.39	-0.202203	0
3.395	-0.203137	0
3.4	-0.204051	0
3.405	-0.205947	0
3.41	-0.207822	0
3.415	-0.209678	0
3.42	-0.212512	0
3.425	-0.214326	0
3.43	-0.216117	0
3.435	-0.217886	0
3.44	-0.219632	0
3.445	-0.221354	0
3.45	-0.223053	0
3.455	-0.224726	0
3.46	-0.226375	0
3.465	-0.196999	0
3.47	-0.168596	0
3.475	-0.140166	0
3.48	-0.111709	0
3.485	-0.0832251	0
3.49	-0.0547125	0
3.495	-0.0261711	0
3.5	0.00239954	0
3.505	0	0
3.51	-0.00136934	0
3.515	-0.00370859	0
3.52	-0.00601802	0
3.525	-0.00729789	0
3.53	-0.00854845	0
3.535	-0.00976996	0
3.54	-0.00996267	0
3.545	-0.00912685	0
3.55	-0.00826274	0
3.555	-0.00737062	0
3.56	-0.00645073	0
3.565	-0.00850332	0
3.57	-0.00952867	0
3.575	-0.011527	0
3.58	-0.0124986	0
3.585	-0.0164438	0
3.59	-0.0203627	0
3.595	-0.0232556	0
3.6	-0.0271229	0
3.605	-0.0289647	0
3.61	-0.0317812	0
3.615	-0.0335729	0
3.62	-0.0363399	0
3.625	-0.0380824	0
3.63	-0.0398008	0
3.635	-0.0414953	0
3.64	-0.0421661	0
3.645	-0.0458135	0
3.65	-0.0484378	0
3.655	-0.0520392	0
3.66	-0.054618	0
3.665	-0.0261744	0
3.67	0.00229129	0
3.675	0.0307788	0
3.68	0.060288	0
3.685	0.125818	0
3.69	0.19237	0
3.695	0.257942	0
3.7	0.324535	0
3.705	0.291149	1
3.71	0.258782	0
3.715	0.225435	0
3.72	0.193108	0
3.725	0.1198	0
3.73	0.0465106	0
3.735	-0.0277597	0
3.74	-0.100011	0
3.745	-0.100245	0
3.75	-0.10046	0
3.755	-0.100658	0
3.76	-0.100839	0
3.765	-0.0940017	0
3.77	-0.0871478	0
3.775	-0.0802772	0
3.78	-0.0733901	0
3.785	-0.0724868	0
3.79	-0.0725677	0
3.795	-0.0716328	0
3.8	-0.0716825	0
3.805	-0.070717	0
3.81	-0.0707366	0
3.815	-0.0707416	0
3.82	-0.0707322	0
3.825	-0.0697086	0
3.83	-0.0686712	0
3.835	-0.0676201	0
3.84	-0.0665556	0
3.845	-0.0664781	0
3.85	-0.0663877	0
3.855	-0.0652847	0
3.86	-0.0651693	0
3.865	-0.0650419	0
3.87	-0.0659027	0
3.875	-0.0657518	0
3.88	-0.0655897	0
3.885	-0.0654165	0
3.89	-0.0652325	0
3.895	-0.064038	0
3.9	-0.0638332	0
3.905	-0.0616184	0
3.91	-0.0593938	0
3.915	-0.0581597	0
3.92	-0.0559163	0
3.925	-0.0526639	0
3.93	-0.0494028	0
3.935	-0.0461332	0
3.94	-0.0428554	0
3.945	-0.0395697	0
3.95	-0.0362762	0
3.955	-0.0329752	0
3.96	-0.0286671	0
3.965	-0.026352	0
3.97	-0.0230302	0
3.975	-0.019702	0
3.98	-0.0163677	0
3.985	-0.0140274	0
3.99	-0.0116815	0
3.995	-0.00933012	0
4	-0.00697365	0
4.005	-0.0076123	0
4.01	-0.00724632	0
4.015	-0.00787597	0
4.02	-0.00850151	0
4.025	-0.0101232	0
4.03	-0.0117413	0
4.035	-0.013356	0
4.04	-0.0149677	0
4.045	-0.0155765	0
4.05	-0.0161828	0
4.055	-0.0167867	0
4.06	-0.0163886	0
4.065	-0.0169887	0
4.07	-0.0165873	0
4.075	-0.0161846	0
4.08	-0.0157808	0
4.085	-0.0153763	0
4.09	-0.0139712	0
4.095	-0.0135659	0
4.1	-0.0121606	0
4.105	-0.0107556	0
4.11	-0.0093511	0
4.115	-0.00794735	0
4.12	-0.00654463	0
4.125	-0.0051432	0
4.13	-0.00474332	0
4.135	-0.00334524	0
4.14	-0.00194921	0
4.145	-0.0015555	0
4.15	-0.00016436	0
4.155	0.000223949	0
4.16	0.00160917	0
4.165	0.00199105	0
4.17	0.00236933	0
4.175	0.00274375	0
4.18	0.00311405	0
4.185	0.00347999	0
4.19	0.00284129	0
4.195	0.00319771	0
4.2	0.00354898	0
4.205	0.00289486	0
4.21	0.00323507	0
4.215	0.00256937	0
4.22	0.0028975	0
4.225	0.0022192	0
4.23	0.00253422	0
4.235	0.00184229	0
4.24	0.00114316	0
4.245	0.000436573	0
4.25	0.000722272	0
4.255	0	0
4.26	0.000269554	0
4.265	0.000530954	0
4.27	0.000784274	0
4.275	0.00202959	0
4.28	0.00226697	0
4.285	0.0044965	0
4.29	0.00571824	0
4.295	0.00793227	0
4.3	0.00913867	0
4.305	0.0103375	0
4.31	0.0115289	0
4.315	0.0127128	0
4.32	0.0138894	0
4.325	0.0120587	0
4.33	0.0112209	0
4.335	0.00937593	0
4.34	0.00852392	0
4.345	0.00566495	0
4.35	0.00379909	0
4.355	0.000926404	0
4.36	-0.000953021	0
4.365	-0.00283912	0
4.37	-0.00373181	0
4.375	-0.00463102	0
4.38	-0.00553667	0
4.385	-0.0054487	0
4.39	-0.00536703	0
4.395	-0.00529158	0
4.4	-0.00522228	0
4.405	-0.00515905	0
4.41	-0.00510183	0
4.415	-0.00405053	0
4.42	-0.00400509	0
4.425	0.0380346	0
4.43	0.0810685	0
4.435	0.123097	0
4.44	0.16512	0
4.445	0.185137	0
4.45	0.206149	0
4.455	0.226155	1
4.46	0.247157	0
4.465	0.194153	0
4.47	0.141144	0
4.475	0.0881298	0
4.48	0.0351108	0
4.485	0.0050869	0
4.49	-0.0239418	0
4.495	-0.0529752	0
4.5	-0.0830133	0
4.505	-0.075056	0
4.51	-0.0681032	0
4.515	-0.0601549	0
4.52	-0.0532109	0
4.525	-0.0472712	0
4.53	-0.0423357	0
4.535	-0.0374044	0
4.54	-0.0314771	0
4.545	-0.0325538	0
4.55	-0.0326345	0
4.555	-0.032719	0
4.56	-0.0328073	0
4.565	-0.0318993	0
4.57	-0.0319949	0
4.575	-0.031094	0
4.58	-0.0311966	0
4.585	-0.0303027	0
4.59	-0.028412	0
4.595	-0.0275246	0
4.6	-0.0266404	0
4.605	-0.0267593	0
4.61	-0.0268813	0
4.615	-0.0270061	0
4.62	-0.0271339	0
4.625	-0.0282645	0
4.63	-0.0293978	0
4.635	-0.0305338	0
4.64	-0.0316723	0
4.645	-0.0308134	0
4.65	-0.0289569	0
4.655	-0.0271027	0
4.66	-0.0252509	0
4.665	-0.0214013	0
4.67	-0.0165538	0
4.675	-0.0127083	0
4.68	-0.00886489	0
4.685	-0.00502337	0
4.69	-0.00218369	0
4.695	0.00165422	0
4.7	0.00449044	0
4.705	0.00732504	0
4.71	0.0101581	0
4.715	0.0129897	0
4.72	0.0158198	0
4.725	0.0186487	0
4.73	0.0214763	0
4.735	0.0243028	0
4.74	0.0281281	0
4.745	0.0279524	0
4.75	0.0287758	0
4.755	0.0285982	0
4.76	0.0294199	0
4.765	0.0262409	0
4.77	0.0240612	0
4.775	0.0208809	0
4.78	0.0187001	0
4.785	0.0165189	0
4.79	0.0153373	0
4.795	0.0131554	0
4.8	0.0109733	0
4.805	0.0107911	0
4.81	0.0106089	0
4.815	0.0104266	0
4.82	0.0102444	0
4.825	0.0100624	0
4.83	0.00988065	0
4.835	0.00969919	0
4.84	0.0105181	0
4.845	0.0113375	0
4.85	0.0121574	0
4.855	0.0129779	0
4.86	0.0137992	0
4.865	0.0136211	0
4.87	0.0144439	0
4.875	0.0142676	0
4.88	0.0150923	0
4.885	0.013918	0
4.89	0.0137449	0
4.895	0.0125729	0
4.9	0.0124023	0
4.905	0.011233	0
4.91	0.0100651	0
4.915	0.00989869	0
4.92	0.00873388	0
4.925	0.00857071	0
4.93	0.00840926	0
4.935	0.00824961	0
4.94	0.00809183	0
4.945	0.00793599	0
4.95	0.00778217	0
4.955	0.00763045	0
4.96	0.00748089	0
4.965	0.00733357	0
4.97	0.00618857	0
4.975	0.00604595	0
4.98	0.00590581	0
4.985	0.0047682	0
4.99	0.0046332	0
4.995	0.00350089	0
5	0.00337134	0
5.005	0.00224463	0
5.01	0.00112082	0
5.015	0	0
5.02	-0.00111778	0
5.025	-0.00123252	0
5.03	-0.00134425	0
5.035	-0.00145298	0
5.04	-0.000558734	0
5.045	0.00233846	0
5.05	0.00623859	0
5.055	0.00914162	0
5.06	0.0130475	0
5.065	0.0149563	0
5.07	0.015868	0
5.075	0.0177824	0
5.08	0.0186997	0
5.085	0.0156198	0
5.09	0.0135426	0
5.095	0.0104681	0
5.1	0.00739639	0
5.105	0.00332736	0
5.11	0.00026101	0
5.115	-0.00380269	0
5.12	-0.00686375	0
5.125	-0.0099222	0
5.13	-0.0129781	0
5.135	-0.0160313	0
5.14	-0.0190821	0
5.145	-0.0201303	0
5.15	-0.020176	0
5.155	-0.0212192	0
5.16	-0.0212599	0
5.165	-0.0232982	0
5.17	-0.0243341	0
5.175	-0.0263676	0
5.18	-0.0273987	0
5.185	0.0125726	0
5.19	0.0535462	0
5.195	0.0945221	0
5.2	0.1355	0
5.205	0.163481	0
5.21	0.191464	0
5.215	0.219448	1
5.22	0.247436	0
5.225	0.195425	0
5.23	0.143417	0
5.235	0.0914103	0
5.24	0.0394061	0
5.245	0.00240401	0
5.25	-0.034596	0
5.255	-0.0715939	0
5.26	-0.10859	0
5.265	-0.101584	0
5.27	-0.0945755	0
5.275	-0.0875654	0
5.28	-0.0805534	0
5.285	-0.0735394	0
5.29	-0.0675235	0
5.295	-0.0605056	0
5.3	-0.054486	0
5.305	-0.0544644	0
5.31	-0.0544411	0
5.315	-0.0544159	0
5.32	-0.0543889	0
5.325	-0.0543602	0
5.33	-0.0543297	0
5.335	-0.0542975	0
5.34	-0.0542636	0
5.345	-0.0532281	0
5.35	-0.0521908	0
5.355	-0.0511519	0
5.36	-0.0491114	0
5.365	-0.0490693	0
5.37	-0.0490257	0
5.375	-0.0479804	0
5.38	-0.0479337	0
5.385	-0.0488854	0
5.39	-0.0488356	0
5.395	-0.0497844	0
5.4	-0.0507317	0
5.405	-0.0486776	0
5.41	-0.0456221	0
5.415	-0.0435652	0
5.42	-0.0415069	0
5.425	-0.0354473	0
5.43	-0.0303864	0
5.435	-0.0243242	0
5.44	-0.0182606	0
5.445	-0.0141959	0
5.45	-0.0101299	0
5.455	-0.00606265	0
5.46	-0.00199423	0
5.465	0.00207536	0
5.47	0.00614611	0
5.475	0.010218	0
5.48	0.015291	0
5.485	0.019365	0
5.49	0.0234402	0
5.495	0.0275164	0
5.5	0.0315936	0
5.505	0.0306718	0
5.51	0.030751	0
5.515	0.0308312	0
5.52	0.0309123	0
5.525	0.0279943	0
5.53	0.0260772	0
5.535	0.023161	0
5.54	0.0212457	0
5.545	0.0183312	0
5.55	0.0154175	0
5.555	0.0125046	0
5.56	0.00959243	0
5.565	0.00768104	0
5.57	0.00677039	0
5.575	0.00586044	0
5.58	0.00495118	0
5.585	0.00504259	0
5.59	0.00613464	0
5.595	0.00622731	0
5.6	0.00732059	0
5.605	0.00841445	0
5.61	0.0105089	0
5.615	0.0116038	0
5.62	0.0136993	0
5.625	0.0147953	0
5.63	0.0158917	0
5.635	0.0169886	0
5.64	0.0180859	0
5.645	0.0181837	0
5.65	0.0192818	0
5.655	0.0193803	0
5.66	0.0194791	0
5.665	0.0195783	0
5.67	0.0186778	0
5.675	0.0187776	0
5.68	0.0188776	0
5.685	0.0179778	0
5.69	0.0180783	0
5.695	0.017179	0
5.7	0.0172799	0
5.705	0.0163809	0
5.71	0.0164821	0
5.715	0.0165833	0
5.72	0.0166847	0
5.725	0.0157862	0
5.73	0.0148877	0
5.735	0.0139892	0
5.74	0.0130907	0
5.745	0.0121922	0
5.75	0.0112937	0
5.755	0.0103951	0
5.76	0.0094965	0
5.765	0.00859776	0
5.77	0.00869891	0
5.775	0.00779991	0
5.78	0.00790075	0
5.785	0.00700141	0
5.79	0.00610187	0
5.795	0.0052021	0
5.8	0.00530209	0
5.805	0.00440182	0
5.81	0.00450125	0
5.815	0.00360038	0
5.82	0.00369917	0
5.825	0.00379762	0
5.83	0.0028957	0
5.835	0.00299338	0
5.84	0.00309064	0
5.845	0.00218747	0
5.85	0.00128385	0
5.855	0.000379743	0
5.86	-0.00052486	0
5.865	0.000570016	0
5.87	0.00166435	0
5.875	0.00175812	0
5.88	0.00285131	0
5.885	0.0029439	0
5.89	0.00303585	0
5.895	0.00312716	0
5.9	0.0032178	0
5.905	0.00130776	0
5.91	0.000396997	0
5.915	-0.00151449	0
5.92	-0.00242674	0
5.925	-0.00233976	0
5.93	-0.00225357	0
5.935	-0.0021682	0
5.94	-0.00108367	0
5.945	0	0
5.95	0.00108279	0
5.955	0.0021647	0
5.96	0.00324573	0
5.965	0.00332585	0
5.97	0.00440508	0
5.975	0.00448341	0
5.98	0.00556084	0
5.985	0.00663735	0
5.99	0.00871295	0
5.995	0.00978763	0
6	0.0118614	0
6.005	0.0119342	0
6.01	0.0110061	0
6.015	0.0110771	0
6.02	0.0101471	0
6.025	0.00821619	0
6.03	0.00528432	0
6.035	0.0033515	0
6.04	0.00141772	0
6.045	-0.000517019	0
6.05	-0.00145272	0
6.055	-0.0033894	0
6.06	-0.00432704	0
6.065	-0.00626567	0
6.07	-0.00720528	0
6.075	-0.00914587	0
6.08	-0.0100875	0
6.085	-0.01403	0
6.09	-0.0169736	0
6.095	-0.0199182	0
6.1	-0.0228638	0
6.105	0.000189611	0
6.11	0.022242	0
6.115	0.0452934	0
6.12	0.0673437	0
6.125	0.117393	0
6.13	0.166441	0
6.135	0.216489	0
6.14	0.266535	0
6.145	0.24058	1
6.15	0.214624	0
6.155	0.188667	0
6.16	0.163709	0
6.165	0.10175	0
6.17	0.0407898	0
6.175	-0.0211715	0
6.18	-0.0811338	0
6.185	-0.0840971	0
6.19	-0.0860616	0
6.195	-0.0890271	0
6.2	-0.0919938	0
6.205	-0.0809615	0
6.21	-0.0699303	0
6.215	-0.0599003	0
6.22	-0.0488713	0
6.225	-0.0478435	0
6.23	-0.0458168	0
6.235	-0.0447912	0
6.24	-0.0427667	0
6.245	-0.0427434	0
6.25	-0.0427212	0
6.255	-0.0427001	0
6.26	-0.0436802	0
6.265	-0.0426615	0
6.27	-0.0416438	0
6.275	-0.0406274	0
6.28	-0.0406121	0
6.285	-0.0405979	0
6.29	-0.040585	0
6.295	-0.0405732	0
6.3	-0.0405626	0
6.305	-0.0405531	0
6.31	-0.0415449	0
6.315	-0.0425379	0
6.32	-0.043532	0
6.325	-0.0415273	0
6.33	-0.0395239	0
6.335	-0.0375216	0
6.34	-0.0355206	0
6.345	-0.0295208	0
6.35	-0.0245222	0
6.355	-0.0185248	0
6.36	-0.0135286	0
6.365	-0.00853373	0
6.37	-0.00354005	0
6.375	0.000452387	0
6.38	0.00544358	0
6.385	0.00843352	0
6.39	0.0124222	0
6.395	0.0154096	0
6.4	0.0183958	0
6.405	0.0223807	0
6.41	0.0253643	0
6.415	0.0293467	0
6.42	0.0333277	0
6.425	0.0353075	0
6.43	0.038286	0
6.435	0.0402632	0
6.44	0.0432391	0
6.445	0.0402137	0
6.45	0.037187	0
6.455	0.034159	0
6.46	0.0311297	0
6.465	0.0240991	0
6.47	0.0180671	0
6.475	0.0120338	0
6.48	0.00599921	0
6.485	0.00296326	0
6.49	-7.40338e-05	0
6.495	-0.00311267	0
6.5	-0.00515265	0
6.505	-0.00619399	0
6.51	-0.00723668	0
6.515	-0.00828074	0
6.52	-0.00832616	0
6.525	-0.00837294	0
6.53	-0.0084211	0
6.535	-0.00847064	0
6.54	-0.00752156	0
6.545	-0.00657387	0
6.55	-0.00462756	0
6.555	-0.00368265	0
6.56	-0.00173914	0
6.565	-0.00179704	0
6.57	-0.000856336	0
6.575	-0.000917048	0
6.58	2.08247e-05	0
6.585	-0.00104272	0
6.59	-0.00210769	0
6.595	-0.00217409	0
6.6	-0.00324193	0
6.605	-0.0033112	0
6.61	-0.00238191	0
6.615	-0.00245407	0
6.62	-0.00252767	0
6.625	-0.00160274	0
6.63	-0.00167925	0
6.635	-0.000757236	0
6.64	0.000163315	0
6.645	8.23951e-05	0
6.65	0	0
6.655	-8.38722e-05	0
6.66	-0.000169213	0
6.665	0.00174399	0
6.67	0.00365574	0
6.675	0.00556606	0
6.68	0.00747496	0
6.685	0.00938244	0
6.69	0.0122885	0
6.695	0.0141932	0
6.7	0.0170965	0
6.705	0.0159985	0
6.71	0.014899	0
6.715	0.0137983	0
6.72	0.0126962	0
6.725	0.00759274	0
6.73	0.003488	0
6.735	-0.00161804	0
6.74	-0.00572538	0
6.745	-0.008834	0
6.75	-0.0119439	0
6.755	-0.016055	0
6.76	-0.0191674	0
6.765	-0.0192811	0
6.77	-0.0193959	0
6.775	-0.019512	0
6.78	-0.0196293	0
6.785	-0.0227477	0
6.79	-0.0248674	0
6.795	-0.0269882	0
6.8	-0.0291102	0
6.805	-0.0172333	0
6.81	-0.00435757	0
6.815	0.00851704	0
6.82	0.0213905	0
6.825	0.0782629	0
6.83	0.135134	0
6.835	0.192004	0
6.84	0.248874	0
6.845	0.243742	0
6.85	0.238609	1
6.855	0.233475	0
6.86	0.22834	0
6.865	0.161204	0
6.87	0.0940665	0
6.875	0.0269285	0
6.88	-0.0402105	0
6.885	-0.0523505	0
6.89	-0.0664915	0
6.895	-0.0796334	0
6.9	-0.0937763	0
6.905	-0.08292	0
6.91	-0.0730647	0
6.915	-0.0632103	0
6.92	-0.0533568	0
6.925	-0.0505042	0
6.93	-0.0476525	0
6.935	-0.0438016	0
6.94	-0.0409516	0
6.945	-0.0411024	0
6.95	-0.041254	0
6.955	-0.0414064	0
6.96	-0.0405597	0
6.965	-0.0397138	0
6.97	-0.0388686	0
6.975	-0.0380242	0
6.98	-0.0371806	0
6.985	-0.0353377	0
6.99	-0.0344956	0
6.995	-0.0326542	0
7	-0.0318135	0
7.005	-0.0329735	0
7.01	-0.0351342	0
7.015	-0.0362956	0
7.02	-0.0374577	0
7.025	-0.0396204	0
7.03	-0.0407838	0
7.035	-0.0429478	0
7.04	-0.0441125	0
7.045	-0.0422778	0
7.05	-0.0404437	0
7.055	-0.0386101	0
7.06	-0.0367772	0
7.065	-0.0319448	0
7.07	-0.0281131	0
7.075	-0.0232818	0
7.08	-0.0194511	0
7.085	-0.0146209	0
7.09	-0.0107913	0
7.095	-0.00596215	0
7.1	-0.00213351	0
7.105	0.00269465	0
7.11	0.00652233	0
7.115	0.0113495	0
7.12	0.0161763	0
7.125	0.0200026	0
7.13	0.0238285	0
7.135	0.027654	0
7.14	0.0324791	0
7.145	0.0323037	0
7.15	0.033128	0
7.155	0.0339519	0
7.16	0.0347754	0
7.165	0.0315986	0
7.17	0.0284215	0
7.175	0.025244	0
7.18	0.0220662	0
7.185	0.019888	0
7.19	0.0177096	0
7.195	0.0155309	0
7.2	0.0133519	0
7.205	0.0131727	0
7.21	0.0119931	0
7.215	0.0118134	0
7.22	0.0116334	0
7.225	0.0114532	0
7.23	0.0122728	0
7.235	0.0120922	0
7.24	0.0129114	0
7.245	0.0147304	0
7.25	0.0155493	0
7.255	0.017368	0
7.26	0.0191865	0
7.265	0.0200049	0
7.27	0.0208232	0
7.275	0.0216414	0
7.28	0.0224595	0
7.285	0.0222775	0
7.29	0.0220954	0
7.295	0.0229133	0
7.3	0.0227311	0
7.305	0.0225488	0
7.31	0.0223665	0
7.315	0.0221842	0
7.32	0.0230019	0
7.325	0.0228196	0
7.33	0.0226373	0
7.335	0.022455	0
7.34	0.0222728	0
7.345	0.0210905	0
7.35	0.0199084	0
7.355	0.0197263	0
7.36	0.0185443	0
7.365	0.0173624	0
7.37	0.0161805	0
7.375	0.0149988	0
7.38	0.0138172	0
7.385	0.0126358	0
7.39	0.0124544	0
7.395	0.0112733	0
7.4	0.0110923	0
7.405	0.0109114	0
7.41	0.0107308	0
7.415	0.0105503	0
7.42	0.0103701	0
7.425	0.0101901	0
7.43	0.0100103	0
7.435	0.00983076	0
7.44	0.0106515	0
7.445	0.0104724	0
7.45	0.0102937	0
7.455	0.0101152	0
7.46	0.00993707	0
7.465	0.00875921	0
7.47	0.00858167	0
7.475	0.00740446	0
7.48	0.00722759	0
7.485	0.00605108	0
7.49	0.00487492	0
7.495	0.00369915	0
7.5	0.00252375	0
7.505	0.00134876	0
7.51	0.00017417	0
7.515	0	0
7.52	-0.00117374	0
7.525	-0.00134704	0
7.53	-0.000519896	0
7.535	-0.000692293	0
7.54	-0.000864225	0
7.545	-3.56811e-05	0
7.55	0.000793346	0
7.555	0.00162287	0
7.56	0.00245289	0
7.565	0.00428342	0
7.57	0.00611448	0
7.575	0.00794606	0
7.58	0.0107782	0
7.585	0.00961085	0
7.59	0.00944408	0
7.595	0.00927787	0
7.6	0.00911223	0
7.605	0.00694718	0
7.61	0.00578272	0
7.615	0.00461887	0
7.62	0.00345562	0
7.625	0.002293	0
7.63	0.001131	0
7.635	-3.03589e-05	0
7.64	-0.00119107	0
7.645	-0.00335113	0
7.65	-0.00551052	0
7.655	-0.00766923	0
7.66	-0.00882727	0
7.665	-0.0129846	0
7.67	-0.0161412	0
7.675	-0.0192972	0
7.68	-0.0224524	0
7.685	0.0283931	0
7.69	0.0782394	0
7.695	0.129086	0
7.7	0.178934	0
7.705	0.213783	0
7.71	0.248632	0
7.715	0.283482	1
7.72	0.319333	0
7.725	0.257185	0
7.73	0.195037	0
7.735	0.13289	0
7.74	0.0707445	0
7.745	0.0265995	0
7.75	-0.0175447	0
7.755	-0.061688	0
7.76	-0.10583	0
7.765	-0.0989721	0
7.77	-0.0931128	0
7.775	-0.0862526	0
7.78	-0.0803915	0
7.785	-0.0735295	0
7.79	-0.0666666	0
7.795	-0.0598028	0
7.8	-0.052938	0
7.805	-0.0540723	0
7.81	-0.0542056	0
7.815	-0.0543379	0
7.82	-0.0544693	0
7.825	-0.0545997	0
7.83	-0.0537291	0
7.835	-0.0538575	0
7.84	-0.0529849	0
7.845	-0.0521113	0
7.85	-0.0512367	0
7.855	-0.051361	0
7.86	-0.0504842	0
7.865	-0.0506065	0
7.87	-0.0517276	0
7.875	-0.0518477	0
7.88	-0.0529667	0
7.885	-0.0540846	0
7.89	-0.0552014	0
7.895	-0.0563171	0
7.9	-0.0574317	0
7.905	-0.0565451	0
7.91	-0.0566574	0
7.915	-0.0557686	0
7.92	-0.0548786	0
7.925	-0.0519875	0
7.93	-0.0480952	0
7.935	-0.0452017	0
7.94	-0.041307	0
7.945	-0.0384111	0
7.95	-0.034514	0
7.955	-0.0306156	0
7.96	-0.0267161	0
7.965	-0.0228153	0
7.97	-0.0179133	0
7.975	-0.01301	0
7.98	-0.00810546	0
7.985	-0.00319965	0
7.99	0.00170745	0
7.995	0.00661584	0
8	0.0115255	0
8.005	0.0134365	0
8.01	0.0153488	0
8.015	0.0172625	0
8.02	0.0191775	0
8.025	0.0160938	0
8.03	0.0140115	0
8.035	0.0119305	0
8.04	0.00985091	0
8.045	0.0057727	0
8.05	0.00269588	0
8.055	-0.00137954	0
8.06	-0.00445355	0
8.065	-0.00552614	0
8.07	-0.00659731	0
8.075	-0.00766704	0
8.08	-0.00873533	0
8.085	-0.00880216	0
8.09	-0.00886754	0
8.095	-0.00793144	0
8.1	-0.00799385	0
8.105	-0.00505478	0
8.11	-0.00211422	0
8.115	-0.000172139	0
8.12	0.00277145	0
8.125	0.00471657	0
8.13	0.00666323	0
8.135	0.00861143	0
8.14	0.0115612	0
8.145	0.0105125	0
8.15	0.00946538	0
8.155	0.00841985	0
8.16	0.0083759	0
8.165	0.00733355	0
8.17	0.00629282	0
8.175	0.00525369	0
8.18	0.0042162	0
8.185	0.00318034	0
8.19	0.00314612	0
8.195	0.00311355	0
8.2	0.00308265	0
8.205	0.00205342	0
8.21	0.00102586	0
8.215	0	0
8.22	-0.00102417	0
8.225	-0.00204665	0
8.23	-0.00206747	0
8.235	-0.00308663	0
8.24	-0.00410416	0
8.245	-0.00112005	0
8.25	0.00186566	0
8.255	0.00485297	0
8.26	0.00884187	0
8.265	0.00983233	0
8.27	0.0108243	0
8.275	0.0128179	0
8.28	0.013813	0
8.285	0.0108096	0
8.29	0.00880763	0
8.295	0.00580719	0
8.3	0.00380822	0
8.305	-0.0011893	0
8.31	-0.00518539	0
8.315	-0.0101801	0
8.32	-0.0141733	0
8.325	-0.0171652	0
8.33	-0.0201557	0
8.335	-0.0231448	0
8.34	-0.0261325	0
8.345	-0.026119	0
8.35	-0.0261041	0
8.355	-0.0270879	0
8.36	-0.0270704	0
8.365	-0.0270517	0
8.37	-0.0260316	0
8.375	-0.0260104	0
8.38	-0.0259879	0
8.385	0.0320359	0
8.39	0.0900608	0
8.395	0.148087	0
8.4	0.206114	0
8.405	0.229143	0
8.41	0.252172	0
8.415	0.275203	1
8.42	0.298235	0
8.425	0.227268	0
8.43	0.156302	0
8.435	0.0853369	0
8.44	0.0143731	0
8.445	-0.0185897	0
8.45	-0.0505514	0
8.455	-0.0835122	0
8.46	-0.115472	0
8.465	-0.106431	0
8.47	-0.0983884	0
8.475	-0.0893453	0
8.48	-0.0823011	0
8.485	-0.0772561	0
8.49	-0.0722101	0
8.495	-0.0681633	0
8.5	-0.0631155	0
8.505	-0.0630669	0
8.51	-0.0640174	0
8.515	-0.0639671	0
8.52	-0.0639159	0
8.525	-0.064864	0
8.53	-0.0648112	0
8.535	-0.0647577	0
8.54	-0.0647034	0
8.545	-0.0636483	0
8.55	-0.0635925	0
8.555	-0.062536	0
8.56	-0.0614788	0
8.565	-0.0624208	0
8.57	-0.0623622	0
8.575	-0.0623029	0
8.58	-0.062243	0
8.585	-0.0641824	0
8.59	-0.0651212	0
8.595	-0.0660594	0
8.6	-0.066997	0
8.605	-0.065934	0
8.61	-0.0648705	0
8.615	-0.0638064	0
8.62	-0.0627418	0
8.625	-0.0586766	0
8.63	-0.054611	0
8.635	-0.0505448	0
8.64	-0.0454782	0
8.645	-0.0414111	0
8.65	-0.0363435	0
8.655	-0.0312755	0
8.66	-0.0262071	0
8.665	-0.0231383	0
8.67	-0.0190691	0
8.675	-0.0149996	0
8.68	-0.0109296	0
8.685	-0.00785933	0
8.69	-0.00378872	0
8.695	0.000282221	0
8.7	0.00435346	0
8.705	0.00542499	0
8.71	0.0064968	0
8.715	0.00756886	0
8.72	0.00864118	0
8.725	0.00571372	0
8.73	0.00378648	0
8.735	0.000859443	0
8.74	-0.00106741	0
8.745	-0.00199408	0
8.75	-0.0039206	0
8.755	-0.00484697	0
8.76	-0.00677321	0
8.765	-0.00769934	0
8.77	-0.00762537	0
8.775	-0.00855131	0
8.78	-0.00847718	0
8.785	-0.00840299	0
8.79	-0.00832875	0
8.795	-0.00825449	0
8.8	-0.00818022	0
8.805	-0.00610595	0
8.81	-0.00403169	0
8.815	-0.00295746	0
8.82	-0.000883281	0
8.825	0.00119084	0
8.83	0.00426489	0
8.835	0.00633886	0
8.84	0.00841272	0
8.845	0.00948646	0
8.85	0.0105601	0
8.855	0.0116335	0
8.86	0.0127068	0
8.865	0.01178	0
8.87	0.0118529	0
8.875	0.0109256	0
8.88	0.00999817	0
8.885	0.00907045	0
8.89	0.00814249	0
8.895	0.00721426	0
8.9	0.00628576	0
8.905	0.00635697	0
8.91	0.00542787	0
8.915	0.00549845	0
8.92	0.00456869	0
8.925	0.00363859	0
8.93	0.00270812	0
8.935	0.00177728	0
8.94	0.00184604	0
8.945	0.000914393	0
8.95	0.000982324	0
8.955	4.98197e-05	0
8.96	0.000116864	0
8.965	-0.000816557	0
8.97	-0.000750458	0
8.975	-0.000684854	0
8.98	-0.000619759	0
8.985	-0.00155519	0
8.99	-0.00149115	0
8.995	-0.00142767	0
9	-0.00136476	0
9.005	-0.00130243	0
9.01	-0.00124069	0
9.015	-0.00117957	0
9.02	-0.00111907	0
9.025	-5.92059e-05	0
9.03	0	0
9.035	0.00105854	0
9.04	0.00111643	0
9.045	0.00217369	0
9.05	0.00223032	0
9.055	0.00328635	0
9.06	0.00434179	0
9.065	0.00739666	0
9.07	0.011451	0
9.075	0.0145048	0
9.08	0.018558	0
9.085	0.0186108	0
9.09	0.019663	0
9.095	0.0197148	0
9.1	0.0197662	0
9.105	0.015817	0
9.11	0.0118675	0
9.115	0.00791758	0
9.12	0.00396725	0
9.125	0.00101654	0
9.13	-0.00293452	0
9.135	-0.00588593	0
9.14	-0.00983766	0
9.145	-0.0117897	0
9.15	-0.013742	0
9.155	-0.0166947	0
9.16	-0.0186475	0
9.165	-0.0196006	0
9.17	-0.020554	0
9.175	-0.0215076	0
9.18	-0.0214613	0
9.185	-0.0154152	0
9.19	-0.00836934	0
9.195	-0.00132358	0
9.2	0.00572205	0
9.205	0.0677676	0
9.21	0.129813	0
9.215	0.191858	0
9.22	0.253904	0
9.225	0.256949	0
9.23	0.259994	1
9.235	0.263039	0
9.24	0.266084	0
9.245	0.18913	0
9.25	0.113175	0
9.255	0.03622	0
9.26	-0.0397346	0
9.265	-0.0586892	0
9.27	-0.0766437	0
9.275	-0.0955981	0
9.28	-0.114552	0
9.285	-0.103506	0
9.29	-0.0924603	0
9.295	-0.0824141	0
9.3	-0.0723676	0
9.305	-0.068321	0
9.31	-0.0652741	0
9.315	-0.0612269	0
9.32	-0.0581796	0
9.325	-0.0581319	0
9.33	-0.0590839	0
9.335	-0.0590356	0
9.34	-0.059987	0
9.345	-0.0589381	0
9.35	-0.0588888	0
9.355	-0.0578391	0
9.36	-0.057789	0
9.365	-0.0567385	0
9.37	-0.0546876	0
9.375	-0.0536363	0
9.38	-0.0515845	0
9.385	-0.0515322	0
9.39	-0.0514794	0
9.395	-0.0514261	0
9.4	-0.0513723	0
9.405	-0.051318	0
9.41	-0.0512631	0
9.415	-0.0502076	0
9.42	-0.0501516	0
9.425	-0.0460949	0
9.43	-0.0420377	0
9.435	-0.0379797	0
9.44	-0.0339212	0
9.445	-0.0288619	0
9.45	-0.023802	0
9.455	-0.0177414	0
9.46	-0.0126801	0
9.465	-0.00961798	0
9.47	-0.00555516	0
9.475	-0.00249156	0
9.48	0.00157282	0
9.485	0.004638	0
9.49	0.00870399	0
9.495	0.0117708	0
9.5	0.0158385	0
9.505	0.018907	0
9.51	0.0219765	0
9.515	0.0250468	0
9.52	0.028118	0
9.525	0.0271902	0
9.53	0.0262633	0
9.535	0.0253374	0
9.54	0.0244124	0
9.545	0.0204885	0
9.55	0.0175655	0
9.555	0.0136436	0
9.56	0.0107228	0
9.565	0.00880296	0
9.57	0.00688423	0
9.575	0.0049666	0
9.58	0.00405008	0
9.585	0.00313468	0
9.59	0.00322043	0
9.595	0.00330734	0
9.6	0.00339542	0
9.605	0.00448469	0
9.61	0.00457517	0
9.615	0.00566688	0
9.62	0.00575982	0
9.625	0.00685402	0
9.63	0.0079495	0
9.635	0.00904627	0
9.64	0.0101443	0
9.645	0.0112437	0
9.65	0.0123445	0
9.655	0.0134465	0
9.66	0.01455	0
9.665	0.0146549	0
9.67	0.0147611	0
9.675	0.0148688	0
9.68	0.0149779	0
9.685	0.0140884	0
9.69	0.0122005	0
9.695	0.011314	0
9.7	0.010429	0
9.705	0.00854552	0
9.71	0.00766359	0
9.715	0.00678321	0
9.72	0.00590439	0
9.725	0.00502716	0
9.73	0.00415153	0
9.735	0.00327751	0
9.74	0.00240512	0
9.745	0.00153439	0
9.75	0.000665317	0
9.755	-0.000202073	0
9.76	-0.00106777	0
9.765	-0.000931744	0
9.77	-0.000793992	0
9.775	-0.000654494	0
9.78	-0.000513233	0
9.785	-0.00137019	0
9.79	-0.00122536	0
9.795	-0.00107871	0
9.8	-0.000930235	0
9.805	-0.00177991	0
9.81	-0.00262773	0
9.815	-0.00247368	0
9.82	-0.00331773	0
9.825	-0.00315987	0
9.83	-0.00300008	0
9.835	-0.00283835	0
9.84	-0.00267466	0
9.845	-0.002509	0
9.85	-0.00134135	0
9.855	-0.00117169	0
9.86	0	0
9.865	0.000173715	0
9.87	0.000349428	0
9.875	0.000527092	0
9.88	0.00170667	0
9.885	0.00288811	0
9.89	0.00507137	0
9.895	0.00625641	0
9.9	0.00844318	0
9.905	0.0116317	0
9.91	0.0148218	0
9.915	0.0190135	0
9.92	0.0222068	0
9.925	0.0204016	0
9.93	0.0195978	0
9.935	0.0177955	0
9.94	0.0159946	0
9.945	0.012195	0
9.95	0.00739674	0
9.955	0.00359972	0
9.96	-0.000196094	0
9.965	-0.00299074	0
9.97	-0.00478426	0
9.975	-0.0075767	0
9.98	-0.00936811	0
9.985	-0.0111585	0
9.99	-0.011948	0
9.995	-0.0127365	0
10	-0.0135242	0
10.005	-0.0163111	0
10.01	-0.0190972	0
10.015	-0.0218826	0
10.02	-0.0246673	0
10.025	0.0145487	0
10.03	0.0527652	0
10.035	0.0919824	0
10.04	0.1312	0
10.045	0.181418	0
10.05	0.231637	0
10.055	0.281856	0
10.06	0.332075	1
10.065	0.284294	0
10.07	0.236514	0
10.075	0.188734	0
10.08	0.141954	0
10.085	0.0811745	0
10.09	0.0213949	0
10.095	-0.0393848	0
10.1	-0.0981644	0
10.105	-0.0949441	0
10.11	-0.0917238	0
10.115	-0.0885038	0
10.12	-0.0852839	0
10.125	-0.0770642	0
10.13	-0.0688448	0
10.135	-0.0606257	0
10.14	-0.053407	0
10.145	-0.0521887	0
10.15	-0.0519709	0
10.155	-0.0507535	0
10.16	-0.0495366	0
10.165	-0.0493204	0
10.17	-0.0491047	0
10.175	-0.0478898	0
10.18	-0.0476755	0
10.185	-0.046462	0
10.19	-0.0452493	0
10.195	-0.0440374	0
10.2	-0.0428264	0
10.205	-0.0416164	0
10.21	-0.0404073	0
10.215	-0.0391992	0
10.22	-0.0379922	0
10.225	-0.0387863	0
10.23	-0.0385815	0
10.235	-0.0393779	0
10.24	-0.0391756	0
10.245	-0.0369745	0
10.25	-0.0347748	0
10.255	-0.0325764	0
10.26	-0.0303794	0
10.265	-0.0251839	0
10.27	-0.0199899	0
10.275	-0.0147974	0
10.28	-0.00960646	0
10.285	-0.00541717	0
10.29	-0.00122956	0
10.295	0.00195634	0
10.3	0.00614048	0
10.305	0.00932283	0
10.31	0.0125033	0
10.315	0.0146819	0
10.32	0.0178586	0
10.325	0.0220333	0
10.33	0.026206	0
10.335	0.0293766	0
10.34	0.0335451	0
10.345	0.0357115	0
10.35	0.0368757	0
10.355	0.0390376	0
10.36	0.0411973	0
10.365	0.0383546	0
10.37	0.0365096	0
10.375	0.0336621	0
10.38	0.0318122	0
10.385	0.0279598	0
10.39	0.0251049	0
10.395	0.0212473	0
10.4	0.0183872	0
10.405	0.0155244	0
10.41	0.0136588	0
10.415	0.0107905	0
10.42	0.00891938	0
10.425	0.00904541	0
10.43	0.00816856	0
10.435	0.00828877	0
10.44	0.008406	0
10.445	0.00952021	0
10.45	0.0106314	0
10.455	0.0117394	0
10.46	0.0128443	0
10.465	0.0149459	0
10.47	0.0160444	0
10.475	0.0181395	0
10.48	0.0192314	0
10.485	0.0203198	0
10.49	0.0214049	0
10.495	0.0224864	0
10.5	0.0235645	0
10.505	0.0226391	0
10.51	0.02171	0
10.515	0.0207773	0
10.52	0.0208409	0
10.525	0.0189009	0
10.53	0.017957	0
10.535	0.0170093	0
10.54	0.0160578	0
10.545	0.0151024	0
10.55	0.0151431	0
10.555	0.0141797	0
10.56	0.0132124	0
10.565	0.011241	0
10.57	0.0102654	0
10.575	0.00828572	0
10.58	0.00730182	0
10.585	0.00531367	0
10.59	0.00332124	0
10.595	0.00132448	0
10.6	-0.000676662	0
10.605	-0.00168222	0
10.61	-0.00369224	0
10.615	-0.00470677	0
10.62	-0.00572585	0
10.625	-0.00674952	0
10.63	-0.00677783	0
10.635	-0.00781082	0
10.64	-0.00784854	0
10.645	-0.00789102	0
10.65	-0.00793831	0
10.655	-0.00799047	0
10.66	-0.00704752	0
10.665	-0.00710951	0
10.67	-0.00617649	0
10.675	-0.0052485	0
10.68	-0.00432559	0
10.685	-0.00440779	0
10.69	-0.00449515	0
10.695	-0.00458772	0
10.7	-0.00468553	0
10.705	-0.00478864	0
10.71	-0.00489709	0
10.715	-0.00501091	0
10.72	-0.00513016	0
10.725	-0.00425487	0
10.73	-0.00338509	0
10.735	-0.00252087	0
10.74	-0.00166225	0
10.745	-0.00180926	0
10.75	-0.000961964	0
10.755	-0.00112039	0
10.76	-0.000284596	0
10.765	-0.000454614	0
10.77	-0.000630492	0
10.775	-0.000812273	0
10.78	0	0
10.785	0.000806304	0
10.79	0.0016067	0
10.795	0.00340128	0
10.8	0.00419013	0
10.805	0.00497333	0
10.81	0.00675097	0
10.815	0.00752313	0
10.82	0.0092899	0
10.825	0.0100514	0
10.83	0.0118076	0
10.835	0.0125587	0
10.84	0.0143048	0
10.845	0.0140459	0
10.85	0.0137821	0
10.855	0.0135136	0
10.86	0.0132403	0
10.865	0.0119624	0
10.87	0.00968002	0
10.875	0.00839316	0
10.88	0.00610193	0
10.885	0.00480644	0
10.89	0.00250675	0
10.895	0.00120296	0
10.9	-0.00110485	0
10.905	-0.0024166	0
10.91	-0.00373219	0
10.915	-0.00605154	0
10.92	-0.00737456	0
10.925	-0.00970118	0
10.93	-0.0120313	0
10.935	-0.0143648	0
10.94	-0.0167017	0
10.945	0.0259582	0
10.95	0.0696149	0
10.955	0.113269	0
10.96	0.156919	0
10.965	0.187567	0
10.97	0.219212	0
10.975	0.250854	0
10.98	0.282494	1
10.985	0.228131	0
10.99	0.173765	0
10.995	0.118397	0
11	0.0640271	0
11.005	0.0246548	0
11.01	-0.0147198	0
11.015	-0.0550963	0
11.02	-0.0934749	0
11.025	-0.0868553	0
11.03	-0.0802374	0
11.035	-0.0726213	0
11.04	-0.0660068	0
11.045	-0.0603939	0
11.05	-0.0537824	0
11.055	-0.0471722	0
11.06	-0.0405633	0
11.065	-0.0399556	0
11.07	-0.0393491	0
11.075	-0.0397435	0
11.08	-0.0391389	0
11.085	-0.0395351	0
11.09	-0.039932	0
11.095	-0.0403297	0
11.1	-0.0397279	0
11.105	-0.0391266	0
11.11	-0.0385258	0
11.115	-0.0379253	0
11.12	-0.037325	0
11.125	-0.0377249	0
11.13	-0.0381248	0
11.135	-0.0385248	0
11.14	-0.0389246	0
11.145	-0.0403243	0
11.15	-0.0407237	0
11.155	-0.0421228	0
11.16	-0.0425214	0
11.165	-0.0419194	0
11.17	-0.0403169	0
11.175	-0.0387137	0
11.18	-0.0371096	0
11.185	-0.0345048	0
11.19	-0.0308989	0
11.195	-0.027292	0
11.2	-0.023684	0
11.205	-0.0190748	0
11.21	-0.0134643	0
11.215	-0.0088524	0
11.22	-0.00323903	0
11.225	0.000375896	0
11.23	0.00499246	0
11.235	0.00961076	0
11.24	0.0142309	0
11.245	0.0178529	0
11.25	0.0214769	0
11.255	0.0251029	0
11.26	0.0287311	0
11.265	0.0293616	0
11.27	0.0309944	0
11.275	0.0326296	0
11.28	0.0342672	0
11.285	0.0319075	0
11.29	0.0305505	0
11.295	0.0281962	0
11.3	0.0258447	0
11.305	0.0224962	0
11.31	0.0191507	0
11.315	0.0158082	0
11.32	0.012469	0
11.325	0.00913304	0
11.33	0.00680043	0
11.335	0.00447127	0
11.34	0.00214563	0
11.345	0.0008236	0
11.35	0.000505272	0
11.355	0.000190729	0
11.36	-0.000119944	0
11.365	0.00057334	0
11.37	0.00127066	0
11.375	0.00197212	0
11.38	0.00367778	0
11.385	0.00338775	0
11.39	0.0031021	0
11.395	0.00282092	0
11.4	0.00354429	0
11.405	0.00327231	0
11.41	0.00300506	0
11.415	0.00274262	0
11.42	0.00248508	0
11.425	0.00223252	0
11.43	0.00298504	0
11.435	0.00274271	0
11.44	0.00350562	0
11.445	0.00327386	0
11.45	0.00304752	0
11.455	0.00282667	0
11.46	0.00261141	0
11.465	0.00140182	0
11.47	0.00119799	0
11.475	0	0
11.48	-0.000192082	0
11.485	-0.000378275	0
11.49	-0.000558615	0
11.495	-0.000733142	0
11.5	9.81065e-05	0
11.505	0.00293509	0
11.51	0.00577778	0
11.515	0.00862612	0
11.52	0.0124801	0
11.525	0.0123396	0
11.53	0.0122047	0
11.535	0.0120754	0
11.54	0.0119514	0
11.545	0.00683295	0
11.55	0.00271986	0
11.555	-0.00238788	0
11.56	-0.0064903	0
11.565	-0.0105874	0
11.57	-0.0146793	0
11.575	-0.018766	0
11.58	-0.0228476	0
11.585	-0.024924	0
11.59	-0.0269953	0
11.595	-0.0290616	0
11.6	-0.0301228	0
11.605	-0.0311791	0
11.61	-0.0322304	0
11.615	-0.0332769	0
11.62	-0.0333185	0
11.625	-0.0293552	0
11.63	-0.0243872	0
11.635	-0.0194144	0
11.64	-0.014437	0
11.645	0.0325452	0
11.65	0.078532	0
11.655	0.125523	0
11.66	0.172519	0
11.665	0.18352	0
11.67	0.194525	0
11.675	0.205534	1
11.68	0.216548	0
11.685	0.157566	0
11.69	0.0985883	0
11.695	0.039615	0
11.7	-0.019354	0
11.705	-0.0443188	0
11.71	-0.0692794	0
11.715	-0.0932359	0
11.72	-0.117188	0
11.725	-0.108137	0
11.73	-0.098081	0
11.735	-0.0900214	0
11.74	-0.0799577	0
11.745	-0.0758902	0
11.75	-0.0718189	0
11.755	-0.0677437	0
11.76	-0.0636647	0
11.765	-0.0645819	0
11.77	-0.0654954	0
11.775	-0.0664053	0
11.78	-0.0663115	0
11.785	-0.0672141	0
11.79	-0.0671132	0
11.795	-0.0670087	0
11.8	-0.0669008	0
11.805	-0.0667894	0
11.81	-0.0656745	0
11.815	-0.0655564	0
11.82	-0.0644348	0
11.825	-0.06531	0
11.83	-0.0661819	0
11.835	-0.0670507	0
11.84	-0.0679162	0
11.845	-0.0697786	0
11.85	-0.0706378	0
11.855	-0.0724941	0
11.86	-0.0743472	0
11.865	-0.0731974	0
11.87	-0.0720447	0
11.875	-0.071889	0
11.88	-0.0707305	0
11.885	-0.0665691	0
11.89	-0.0624049	0
11.895	-0.058238	0
11.9	-0.0540683	0
11.905	-0.0508959	0
11.91	-0.0467209	0
11.915	-0.0425433	0
11.92	-0.0383632	0
11.925	-0.0351804	0
11.93	-0.0309952	0
11.935	-0.0268076	0
11.94	-0.0226175	0
11.945	-0.0184251	0
11.95	-0.0142303	0
11.955	-0.0100332	0
11.96	-0.00583378	0
11.965	-0.00463219	0
11.97	-0.00342841	0
11.975	-0.00222247	0
11.98	-1.44264e-05	0
11.985	-0.00280431	0
11.99	-0.00459215	0
11.995	-0.00737799	0
12	-0.00916188	0
12.005	-0.0119438	0
12.01	-0.0137239	0
12.015	-0.0165022	0
12.02	-0.0192786	0
12.025	-0.0190532	0
12.03	-0.0188262	0
12.035	-0.0195974	0
12.04	-0.019367	0
12.045	-0.0181349	0
12.05	-0.0169013	0
12.055	-0.0156662	0
12.06	-0.0144295	0
12.065	-0.0141914	0
12.07	-0.0129519	0
12.075	-0.0117109	0
12.08	-0.0104686	0
12.085	-0.00922504	0
12.09	-0.00698017	0
12.095	-0.00573407	0
12.1	-0.00348677	0
12.105	-0.00223831	0
12.11	-0.000988732	0
12.115	0.00126193	0
12.12	0.00251363	0
12.125	0.00276635	0
12.13	0.00302003	0
12.135	0.00327463	0
12.14	0.00353013	0
12.145	0.00378649	0
12.15	0.00304366	0
12.155	0.0033016	0
12.16	0.00356029	0
12.165	0.00281967	0
12.17	0.00307972	0
12.175	0.00234039	0
12.18	0.00260165	0
12.185	0.00186346	0
12.19	0.00112578	0
12.195	0.000388564	0
12.2	-0.000348214	0
12.205	-0.0010846	0
12.21	-0.00182062	0
12.215	-0.00155633	0
12.22	-0.00229175	0
12.225	-0.00202693	0
12.23	-0.00276191	0
12.235	-0.00249672	0
12.24	-0.0032314	0
12.245	-0.002966	0
12.25	-0.00270054	0
12.255	-0.00243506	0
12.26	-0.00216961	0
12.265	-0.00190423	0
12.27	-0.00163894	0
12.275	-0.00137379	0
12.28	-0.00110882	0
12.285	-0.000844065	0
12.29	-0.000579563	0
12.295	-0.000315351	0
12.3	-5.14694e-05	0
12.305	-0.000787955	0
12.31	-0.000524847	0
12.315	-0.000262182	0
12.32	0	0
12.325	-0.000738339	0
12.33	-0.000477239	0
12.335	-0.00121674	0
12.34	-0.000956889	0
12.345	-0.000697722	0
12.35	0.000560718	0
12.355	0.00081839	0
12.36	0.00107525	0
12.365	0.00333126	0
12.37	0.00458638	0
12.375	0.00684057	0
12.38	0.00809378	0
12.385	0.00734597	0
12.39	0.00759711	0
12.395	0.00684715	0
12.4	0.00609604	0
12.405	0.00534376	0
12.41	0.00359025	0
12.415	0.00283548	0
12.42	0.0010794	0
12.425	0.00032198	0
12.43	-0.000436833	0
12.435	-0.00119707	0
12.44	-0.00195879	0
12.445	-0.00372201	0
12.45	-0.00548679	0
12.455	-0.00725316	0
12.46	-0.00902117	0
12.465	-0.0117909	0
12.47	-0.0155623	0
12.475	-0.0183354	0
12.48	-0.0211104	0
12.485	0.00811279	0
12.49	0.0373341	0
12.495	0.0665535	0
12.5	0.0957709	0
12.505	0.136986	0
12.51	0.1782	0
12.515	0.219411	0
12.52	0.26062	1
12.525	0.220827	0
12.53	0.182032	0
12.535	0.143234	0
12.54	0.104434	0
12.545	0.0536323	0
12.55	0.00382773	0
12.555	-0.0469792	0
12.56	-0.0967886	0
12.565	-0.0906006	0
12.57	-0.085415	0
12.575	-0.0802321	0
12.58	-0.0750517	0
12.585	-0.0658741	0
12.59	-0.0566992	0
12.595	-0.047527	0
12.6	-0.0373576	0
12.605	-0.036191	0
12.61	-0.0350273	0
12.615	-0.0338666	0
12.62	-0.0327088	0
12.625	-0.032554	0
12.63	-0.0324022	0
12.635	-0.0322535	0
12.64	-0.0321079	0
12.645	-0.0309656	0
12.65	-0.0298264	0
12.655	-0.0286904	0
12.66	-0.0275578	0
12.665	-0.0274285	0
12.67	-0.0273025	0
12.675	-0.02718	0
12.68	-0.0270609	0
12.685	-0.0279453	0
12.69	-0.0278333	0
12.695	-0.0287248	0
12.7	-0.02962	0
12.705	-0.0275188	0
12.71	-0.0254213	0
12.715	-0.0233276	0
12.72	-0.0202376	0
12.725	-0.0161515	0
12.73	-0.0110693	0
12.735	-0.00599092	0
12.74	-0.000916525	0
12.745	0.00315388	0
12.75	0.00722025	0
12.755	0.0112825	0
12.76	0.0153407	0
12.765	0.0173947	0
12.77	0.0204446	0
12.775	0.0224901	0
12.78	0.0255314	0
12.785	0.0275684	0
12.79	0.029601	0
12.795	0.0326292	0
12.8	0.034653	0
12.805	0.0356723	0
12.81	0.036687	0
12.815	0.0376972	0
12.82	0.0387027	0
12.825	0.0367036	0
12.83	0.0336999	0
12.835	0.0316913	0
12.84	0.028678	0
12.845	0.0256599	0
12.85	0.0226369	0
12.855	0.019609	0
12.86	0.0165762	0
12.865	0.0145384	0
12.87	0.0134956	0
12.875	0.0114477	0
12.88	0.0103947	0
12.885	0.00933649	0
12.89	0.00827314	0
12.895	0.00720456	0
12.9	0.0071307	0
12.905	0.00705153	0
12.91	0.00796701	0
12.915	0.00887708	0
12.92	0.00978172	0
12.925	0.0106809	0
12.93	0.0125745	0
12.935	0.0134626	0
12.94	0.015345	0
12.945	0.0162219	0
12.95	0.017093	0
12.955	0.0179584	0
12.96	0.0198181	0
12.965	0.0186719	0
12.97	0.0185199	0
12.975	0.0183619	0
12.98	0.0181981	0
12.985	0.0170283	0
12.99	0.0158524	0
12.995	0.0146705	0
13	0.0134825	0
13.005	0.0122883	0
13.01	0.011088	0
13.015	0.00988146	0
13.02	0.00866864	0
13.025	0.00744952	0
13.03	0.00622404	0
13.035	0.00499218	0
13.04	0.00375388	0
13.045	0.00250912	0
13.05	0.00125784	0
13.055	0	0
13.06	-0.00126439	0
13.065	-0.00153516	0
13.07	-0.00181211	0
13.075	-0.00109502	0
13.08	-0.00138368	0
13.085	0.00132213	0
13.09	0.0040226	0
13.095	0.00571796	0
13.1	0.00840842	0
13.105	0.00809418	0
13.11	0.00777546	0
13.115	0.00745247	0
13.12	0.00712543	0
13.125	0.00379454	0
13.13	0.000460007	0
13.135	-0.00287795	0
13.14	-0.00621911	0
13.145	-0.00956328	0
13.15	-0.0129102	0
13.155	-0.0162598	0
13.16	-0.0196117	0
13.165	-0.0219657	0
13.17	-0.0243217	0
13.175	-0.0266794	0
13.18	-0.0290387	0
13.185	-0.0303993	0
13.19	-0.0307609	0
13.195	-0.0321234	0
13.2	-0.0334867	0
13.205	-0.0308503	0
13.21	-0.0282143	0
13.215	-0.0265782	0
13.22	-0.023942	0
13.225	0.0216945	0
13.23	0.0663317	0
13.235	0.11197	0
13.24	0.156609	0
13.245	0.167249	0
13.25	0.176891	0
13.255	0.187534	1
13.26	0.197179	0
13.265	0.137826	0
13.27	0.0794759	0
13.275	0.020128	0
13.28	-0.0392173	0
13.285	-0.0605596	0
13.29	-0.0808988	0
13.295	-0.101235	0
13.3	-0.122567	0
13.305	-0.112895	0
13.31	-0.10322	0
13.315	-0.0935404	0
13.32	-0.0838563	0
13.325	-0.0801677	0
13.33	-0.0764742	0
13.335	-0.0747757	0
13.34	-0.0710719	0
13.345	-0.0723627	0
13.35	-0.0726478	0
13.355	-0.0739271	0
13.36	-0.0742002	0
13.365	-0.074467	0
13.37	-0.0737273	0
13.375	-0.0739809	0
13.38	-0.0732276	0
13.385	-0.0724671	0
13.39	-0.0716992	0
13.395	-0.0699238	0
13.4	-0.0691405	0
13.405	-0.0703493	0
13.41	-0.0705499	0
13.415	-0.0717421	0
13.42	-0.0719256	0
13.425	-0.0731003	0
13.43	-0.0742659	0
13.435	-0.0744222	0
13.44	-0.0755691	0
13.445	-0.0737063	0
13.45	-0.0718336	0
13.455	-0.0699508	0
13.46	-0.0680577	0
13.465	-0.064154	0
13.47	-0.0602396	0
13.475	-0.0563142	0
13.48	-0.0523777	0
13.485	-0.0494297	0
13.49	-0.0464702	0
13.495	-0.0434989	0
13.5	-0.0405156	0
13.505	-0.03852	0
13.51	-0.036512	0
13.515	-0.0344914	0
13.52	-0.0324579	0
13.525	-0.0304113	0
13.53	-0.0273514	0
13.535	-0.0252781	0
13.54	-0.022191	0
13.545	-0.02209	0
13.55	-0.0209749	0
13.555	-0.0208455	0
13.56	-0.0197014	0
13.565	-0.0225427	0
13.57	-0.0243689	0
13.575	-0.02618	0
13.58	-0.0279757	0
13.585	-0.0297557	0
13.59	-0.03152	0
13.595	-0.0342682	0
13.6	-0.0360001	0
13.605	-0.0367156	0
13.61	-0.0374145	0
13.615	-0.0380964	0
13.62	-0.0377613	0
13.625	-0.0374089	0
13.63	-0.0370389	0
13.635	-0.0366513	0
13.64	-0.0362456	0
13.645	-0.0348219	0
13.65	-0.0333798	0
13.655	-0.0319191	0
13.66	-0.0304396	0
13.665	-0.0289412	0
13.67	-0.0264235	0
13.675	-0.0248864	0
13.68	-0.0223297	0
13.685	-0.0217531	0
13.69	-0.0211565	0
13.695	-0.0205397	0
13.7	-0.0189023	0
13.705	-0.0192443	0
13.71	-0.0195654	0
13.715	-0.0198654	0
13.72	-0.020144	0
13.725	-0.0194011	0
13.73	-0.0196365	0
13.735	-0.0188499	0
13.74	-0.0180412	0
13.745	-0.0182101	0
13.75	-0.0173563	0
13.755	-0.0174798	0
13.76	-0.0165803	0
13.765	-0.0166576	0
13.77	-0.0167114	0
13.775	-0.0167416	0
13.78	-0.0167479	0
13.785	-0.0157301	0
13.79	-0.0156881	0
13.795	-0.0146215	0
13.8	-0.0135303	0
13.805	-0.0134142	0
13.81	-0.0122729	0
13.815	-0.0111063	0
13.82	-0.00991411	0
13.825	-0.00869618	0
13.83	-0.00745229	0
13.835	-0.0061822	0
13.84	-0.00488573	0
13.845	-0.00456264	0
13.85	-0.00321274	0
13.855	-0.0018358	0
13.86	-0.000431629	0
13.865	0	0
13.87	0.00145918	0
13.875	0.00294556	0
13.88	0.00445868	0
13.885	0.00699808	0
13.89	0.00956328	0
13.895	0.0121538	0
13.9	0.0147693	0
13.905	0.0194091	0
13.91	0.0240729	0
13.915	0.0287602	0
13.92	0.0334706	0
13.925	0.0342035	0
13.93	0.0349585	0
13.935	0.0357351	0
13.94	0.036533	0
13.945	0.0343515	0
13.95	0.0321903	0
13.955	0.0300489	0
13.96	0.0279268	0
13.965	0.0278235	0
13.97	0.0277387	0
13.975	0.0276718	0
13.98	0.0286223	0
13.985	0.0295899	0
13.99	0.031574	0
13.995	0.0325741	0
14	0.0345899	0
14.005	0.0346209	0
14.01	0.0356665	0
14.015	0.0357264	0
14.02	0.0368	0
14.025	0.0578869	0
14.03	0.0789867	0
14.035	0.100099	0
14.04	0.121223	0
14.045	0.170358	0
14.05	0.219505	0
14.055	0.269662	0
14.06	0.318829	0
14.065	0.266005	1
14.07	0.214191	0
14.075	0.161386	0
14.08	0.109588	0
14.085	0.0217985	0
14.09	-0.0669839	0
14.095	-0.155759	0
14.1	-0.244529	0
14.105	-0.244292	0
14.11	-0.24405	0
14.115	-0.243803	0
14.12	-0.243551	0
14.125	-0.231296	0
14.13	-0.220037	0
14.135	-0.207775	0
14.14	-0.19651	0
14.145	-0.193243	0
14.15	-0.189974	0
14.155	-0.186704	0
14.16	-0.184433	0
14.165	-0.182162	0
14.17	-0.180891	0
14.175	-0.178621	0
14.18	-0.177351	0
14.185	-0.174084	0
14.19	-0.170818	0
14.195	-0.167555	0
14.2	-0.165294	0
14.205	-0.162037	0
14.21	-0.158784	0
14.215	-0.155535	0
14.22	-0.152291	0
14.225	-0.150052	0
14.23	-0.148819	0
14.235	-0.146592	0
14.24	-0.144372	0
14.245	-0.141159	0
14.25	-0.136953	0
14.255	-0.133755	0
14.26	-0.130566	0
14.265	-0.123386	0
14.27	-0.117215	0
14.275	-0.111054	0
14.28	-0.104904	0
14.285	-0.0987639	0
14.29	-0.0936354	0
14.295	-0.0875186	0
14.3	-0.081414	0
14.305	-0.076322	0
14.31	-0.0722432	0
14.315	-0.0671779	0
14.32	-0.0621267	0
14.325	-0.05709	0
14.33	-0.0520683	0
14.335	-0.046062	0
14.34	-0.0410716	0
14.345	-0.0370976	0
14.35	-0.0341404	0
14.355	-0.0302005	0
14.36	-0.0272783	0
14.365	-0.0263743	0
14.37	-0.0264891	0
14.375	-0.0256229	0
14.38	-0.0257764	0
14.385	-0.02695	0
14.39	-0.0271441	0
14.395	-0.0283591	0
14.4	-0.0285957	0
14.405	-0.0278541	0
14.41	-0.028135	0
14.415	-0.0274387	0
14.42	-0.0277657	0
14.425	-0.0261165	0
14.43	-0.0254915	0
14.435	-0.0238913	0
14.44	-0.0233162	0
14.445	-0.0217667	0
14.45	-0.0192433	0
14.455	-0.0177465	0
14.46	-0.0152767	0
14.465	-0.0128344	0
14.47	-0.00942006	0
14.475	-0.00703411	0
14.48	-0.00467704	0
14.485	-0.00234931	0
14.49	-5.13788e-05	0
14.495	0.00221629	0
14.5	0.00345322	0
14.505	0.00465897	0
14.51	0.00483306	0
14.515	0.00597502	0
14.52	0.00608441	0
14.525	0.00716075	0
14.53	0.00720358	0
14.535	0.00721244	0
14.54	0.00718686	0
14.545	0.00812638	0
14.55	0.00903054	0
14.555	0.00989887	0
14.56	0.00973092	0
14.565	0.0095262	0
14.57	0.00928427	0
14.575	0.00900466	0
14.58	0.00868691	0
14.585	0.00833055	0
14.59	0.00693512	0
14.595	0.00650015	0
14.6	0.00502519	0
14.605	0.00450976	0
14.61	0.00395341	0
14.615	0.00235567	0
14.62	0.00171609	0
14.625	0.00103418	0
14.63	0.000309499	0
14.635	0.000541575	0
14.64	-0.000270054	0
14.645	-0.000125852	0
14.65	-2.62824e-05	0
14.655	2.81919e-05	0
14.66	-0.000962893	0
14.665	0	0
14.67	-8.34347e-05	0
14.675	-0.000212869	0
14.68	-0.000387816	0
14.685	0.00039221	0
14.69	0.0011277	0
14.695	0.00281913	0
14.7	0.00346699	0
14.705	0.00507178	0
14.71	0.00663397	0
14.715	0.00915405	0
14.72	0.0106325	0
14.725	0.00806983	0
14.73	0.0054665	0
14.735	0.00282302	0
14.74	0.000139853	0
14.745	-0.0045825	0
14.75	-0.00834356	0
14.755	-0.0131428	0
14.76	-0.0169798	0
14.765	-0.0188541	0
14.77	-0.0217651	0
14.775	-0.0237124	0
14.78	-0.0256954	0
14.785	-0.0277138	0
14.79	-0.029767	0
14.795	-0.0318545	0
14.8	-0.0339758	0
14.805	-0.0371305	0
14.81	-0.040318	0
14.815	-0.043538	0
14.82	-0.0477898	0
14.825	0.000926956	0
14.83	0.0486128	0
14.835	0.0972682	0
14.84	0.144894	0
14.845	0.22049	0
14.85	0.297057	0
14.855	0.372595	0
14.86	0.449106	0
14.865	0.397589	1
14.87	0.345045	0
14.875	0.293474	0
14.88	0.240878	0
14.885	0.152255	0
14.89	0.0626081	0
14.895	-0.0270637	0
14.9	-0.11776	0
14.905	-0.123479	0
14.91	-0.129222	0
14.915	-0.134987	0
14.92	-0.140775	0
14.925	-0.132584	0
14.93	-0.124415	0
14.935	-0.116266	0
14.94	-0.108137	0
14.945	-0.107028	0
14.95	-0.105939	0
14.955	-0.105868	0
14.96	-0.104815	0
14.965	-0.10678	0
14.97	-0.107763	0
14.975	-0.109762	0
14.98	-0.111777	0
14.985	-0.111809	0
14.99	-0.112856	0
14.995	-0.112917	0
15	-0.113993	0
15.005	-0.115083	0
15.01	-0.115187	0
15.015	-0.116303	0
15.02	-0.117432	0
15.025	-0.119572	0
15.03	-0.121724	0
15.035	-0.123888	0
15.04	-0.126061	0
15.045	-0.128245	0
15.05	-0.130438	0
15.055	-0.13264	0
15.06	-0.134851	0
15.065	-0.10207	0
15.07	-0.0702958	0
15.075	-0.0385293	0
15.08	-0.00676928	0
15.085	0.0269846	0
15.09	0.0607328	0
15.095	0.0934759	0
15.1	0.126214	0
15.105	0.126949	0
15.11	0.127679	0
15.115	0.128407	0
15.12	0.129131	0
15.125	0.129854	0
15.13	0.130575	0
15.135	0.131294	0
15.14	0.132013	0
15.145	0.132731	0
15.15	0.13345	0
15.155	0.133169	0
15.16	0.13389	0
15.165	0.131612	0
15.17	0.129336	0
15.175	0.127063	0
15.18	0.124793	0
15.185	0.120527	0
15.19	0.115265	0
15.195	0.111007	0
15.2	0.106755	0
15.205	0.102508	0
15.21	0.0992671	0
15.215	0.0950327	0
15.22	0.0918054	0
15.225	0.0885856	0
15.23	0.0863737	0
15.235	0.0841704	0
15.24	0.081976	0
15.245	0.080791	0
15.25	0.078616	0
15.255	0.0774514	0
15.26	0.0752978	0
15.265	0.0741555	0
15.27	0.0740251	0
15.275	0.0729071	0
15.28	0.0728019	0
15.285	0.0717101	0
15.29	0.0706321	0
15.295	0.0695684	0
15.3	0.0695195	0
15.305	0.0674859	0
15.31	0.0654681	0
15.315	0.0634666	0
15.32	0.0614818	0
15.325	0.0595142	0
15.33	0.0575643	0
15.335	0.0566327	0
15.34	0.0547198	0
15.345	0.052826	0
15.35	0.0519519	0
15.355	0.0500979	0
15.36	0.0492646	0
15.365	0.0464524	0
15.37	0.0436619	0
15.375	0.0408934	0
15.38	0.0381475	0
15.385	0.0344247	0
15.39	0.0317254	0
15.395	0.0280502	0
15.4	0.0253995	0
15.405	0.0237738	0
15.41	0.0221736	0
15.415	0.0195995	0
15.42	0.0180518	0
15.425	0.015531	0
15.43	0.0140377	0
15.435	0.0115724	0
15.44	0.00913542	0
15.445	0.00572739	0
15.45	0.00334875	0
15.455	0	0
15.46	-0.00331851	0
15.465	-0.00560691	0
15.47	-0.00686545	0
15.475	-0.00909438	0
15.48	-0.010294	0
15.485	-0.0104644	0
15.49	-0.00960606	0
15.495	-0.0087191	0
15.5	-0.0078038	0
15.505	-0.00686041	0
15.51	-0.00588919	0
15.515	-0.0048904	0
15.52	-0.00386427	0
15.525	-0.00681108	0
15.53	-0.00973106	0
15.535	-0.0126245	0
15.54	-0.0154916	0
15.545	-0.0203326	0
15.55	-0.0241479	0
15.555	-0.0279376	0
15.56	-0.031702	0
15.565	-0.0334413	0
15.57	-0.0351559	0
15.575	-0.0368459	0
15.58	-0.0385117	0
15.585	-0.0391534	0
15.59	-0.0407713	0
15.595	-0.0413657	0
15.6	-0.0419369	0
15.605	-0.040485	0
15.61	-0.0390104	0
15.615	-0.0375132	0
15.62	-0.0359938	0
15.625	0.00554757	0
15.63	0.0481107	0
15.635	0.0896954	0
15.64	0.132301	0
15.645	0.144928	0
15.65	0.158576	0
15.655	0.172244	1
15.66	0.185932	0
15.665	0.13264	0
15.67	0.0793685	0
15.675	0.025116	0
15.68	-0.0281174	0
15.685	-0.0513317	0
15.69	-0.0735273	0
15.695	-0.0967045	0
15.7	-0.120863	0
15.705	-0.114005	0
15.71	-0.107128	0
15.715	-0.100234	0
15.72	-0.0933225	0
15.725	-0.0893943	0
15.73	-0.0864494	0
15.735	-0.082488	0
15.74	-0.0795105	0
15.745	-0.0785171	0
15.75	-0.0785081	0
15.755	-0.0774836	0
15.76	-0.0774439	0
15.765	-0.0753894	0
15.77	-0.0743202	0
15.775	-0.0732366	0
15.78	-0.0721388	0
15.785	-0.0720272	0
15.79	-0.0709019	0
15.795	-0.0697632	0
15.8	-0.0686114	0
15.805	-0.0694468	0
15.81	-0.0702695	0
15.815	-0.0700798	0
15.82	-0.070878	0
15.825	-0.0706644	0
15.83	-0.0704391	0
15.835	-0.0702025	0
15.84	-0.0709548	0
15.845	-0.0696963	0
15.85	-0.0684271	0
15.855	-0.0671476	0
15.86	-0.064858	0
15.865	-0.0625586	0
15.87	-0.0602496	0
15.875	-0.0569313	0
15.88	-0.0546039	0
15.885	-0.0512677	0
15.89	-0.0489229	0
15.895	-0.0455697	0
15.9	-0.0432086	0
15.905	-0.0398396	0
15.91	-0.0364631	0
15.915	-0.0330792	0
15.92	-0.0286884	0
15.925	-0.0242907	0
15.93	-0.0198865	0
15.935	-0.015476	0
15.94	-0.0110594	0
15.945	-0.00963713	0
15.95	-0.00720929	0
15.955	-0.00577618	0
15.96	-0.00333806	0
15.965	-0.00489516	0
15.97	-0.00644775	0
15.975	-0.00799609	0
15.98	-0.00954042	0
15.985	-0.011081	0
15.99	-0.0116181	0
15.995	-0.0131519	0
16	-0.0146828	0
16.005	-0.0152109	0
16.01	-0.0157365	0
16.015	-0.0162599	0
16.02	-0.0157813	0
16.025	-0.015301	0
16.03	-0.0148192	0
16.035	-0.0133362	0
16.04	-0.0128522	0
16.045	-0.0113676	0
16.05	-0.00888242	0
16.055	-0.00739709	0
16.06	-0.00591181	0
16.065	-0.00442683	0
16.07	-0.00394241	0
16.075	-0.0024588	0
16.08	-0.00097626	0
16.085	-0.000495033	0
16.09	0.000984622	0
16.095	0.00146245	0
16.1	0.0029382	0
16.105	0.00341163	0
16.11	0.00388246	0
16.115	0.00435046	0
16.12	0.00481536	0
16.125	0.00527692	0
16.13	0.00573488	0
16.135	0.00518899	0
16.14	0.00563899	0
16.145	0.00508463	0
16.15	0.00552565	0
16.155	0.00496182	0
16.16	0.00539286	0
16.165	0.00381852	0
16.17	0.00323857	0
16.175	0.00265273	0
16.18	0.00206075	0
16.185	0.00146239	0
16.19	0.000857387	0
16.195	0.000245491	0
16.2	0.000626446	0
16.205	0	0
16.21	0.00036595	0
16.215	0.000724296	0
16.22	0.00107509	0
16.225	0.00141838	0
16.23	0.00275422	0
16.235	0.00308266	0
16.24	0.00440376	0
16.245	0.00571755	0
16.25	0.0080241	0
16.255	0.0103235	0
16.26	0.0126157	0
16.265	0.0129008	0
16.27	0.0141789	0
16.275	0.0144499	0
16.28	0.0157141	0
16.285	0.0129713	0
16.29	0.0112218	0
16.295	0.00846538	0
16.3	0.00670227	0
16.305	0.00493248	0
16.31	0.00215606	0
16.315	0.000373051	0
16.32	-0.00241649	0
16.325	-0.00321251	0
16.33	-0.00401496	0
16.335	-0.00482378	0
16.34	-0.00563894	0
16.345	-0.00746037	0
16.35	-0.00828802	0
16.355	-0.0101219	0
16.36	-0.0109618	0
16.365	0.00519217	0
16.37	0.0223401	0
16.375	0.0384821	0
16.38	0.0556182	0
16.385	0.101748	0
16.39	0.148873	0
16.395	0.194991	0
16.4	0.242104	0
16.405	0.227212	1
16.41	0.212313	0
16.415	0.197409	0
16.42	0.1825	0
16.425	0.124585	0
16.43	0.0666645	0
16.435	0.00973885	0
16.44	-0.0471921	0
16.445	-0.0541284	0
16.45	-0.0610698	0
16.455	-0.0680164	0
16.46	-0.0759681	0
16.465	-0.0659248	0
16.47	-0.0558866	0
16.475	-0.0468533	0
16.48	-0.0368248	0
16.485	-0.0348013	0
16.49	-0.0327825	0
16.495	-0.0307685	0
16.5	-0.0287592	0
16.505	-0.0287545	0
16.51	-0.0287544	0
16.515	-0.0287588	0
16.52	-0.0287677	0
16.525	-0.0287811	0
16.53	-0.0287989	0
16.535	-0.027821	0
16.54	-0.0268473	0
16.545	-0.0268779	0
16.55	-0.0259127	0
16.555	-0.0259517	0
16.56	-0.0249947	0
16.565	-0.0250417	0
16.57	-0.0250927	0
16.575	-0.0251477	0
16.58	-0.0252065	0
16.585	-0.0262691	0
16.59	-0.0263355	0
16.595	-0.0274057	0
16.6	-0.0274795	0
16.605	-0.0255569	0
16.61	-0.0226379	0
16.615	-0.0207224	0
16.62	-0.0188104	0
16.625	-0.0149018	0
16.63	-0.0109966	0
16.635	-0.00709471	0
16.64	-0.00219606	0
16.645	0.000699373	0
16.65	0.00359165	0
16.655	0.00648081	0
16.66	0.0103669	0
16.665	0.01325	0
16.67	0.0161301	0
16.675	0.0190074	0
16.68	0.0228818	0
16.685	0.0247533	0
16.69	0.0276221	0
16.695	0.0294883	0
16.7	0.0323517	0
16.705	0.0312126	0
16.71	0.0310709	0
16.715	0.0309267	0
16.72	0.0307801	0
16.725	0.0286311	0
16.73	0.0264797	0
16.735	0.0243261	0
16.74	0.0231702	0
16.745	0.0220121	0
16.75	0.0208518	0
16.755	0.0196895	0
16.76	0.0185251	0
16.765	0.0183588	0
16.77	0.0181905	0
16.775	0.0170203	0
16.78	0.0168483	0
16.785	0.0176745	0
16.79	0.017499	0
16.795	0.0183218	0
16.8	0.018143	0
16.805	0.0199626	0
16.81	0.0217806	0
16.815	0.0235972	0
16.82	0.0254124	0
16.825	0.0272262	0
16.83	0.0290386	0
16.835	0.0308498	0
16.84	0.0326598	0
16.845	0.0324686	0
16.85	0.0322763	0
16.855	0.0330829	0
16.86	0.0328885	0
16.865	0.0316931	0
16.87	0.0314968	0
16.875	0.0302997	0
16.88	0.0301017	0
16.885	0.028903	0
16.89	0.0287036	0
16.895	0.0285035	0
16.9	0.0283028	0
16.905	0.0271015	0
16.91	0.0258998	0
16.915	0.0246975	0
16.92	0.0234949	0
16.925	0.0222919	0
16.93	0.0200886	0
16.935	0.0188851	0
16.94	0.0176814	0
16.945	0.0154775	0
16.95	0.0142735	0
16.955	0.0130695	0
16.96	0.0118655	0
16.965	0.0106615	0
16.97	0.00945764	0
16.975	0.00825394	0
16.98	0.00805044	0
16.985	0.00684721	0
16.99	0.00664428	0
16.995	0.00644172	0
17	0.00623957	0
17.005	0.00603788	0
17.01	0.00583671	0
17.015	0.0056361	0
17.02	0.00543611	0
17.025	0.00423679	0
17.03	0.00303819	0
17.035	0.00184036	0
17.04	0.00164334	0
17.045	0.000447205	0
17.05	0.000251989	0
17.055	-0.000942252	0
17.06	-0.00113547	0
17.065	-0.000327608	0
17.07	0.00048138	0
17.075	0.00129155	0
17.08	0.00210294	0
17.085	0.00191562	0
17.09	0.00172963	0
17.095	0.000545019	0
17.1	0.000361844	0
17.105	0.000180154	0
17.11	0	0
17.115	-0.000178574	0
17.12	-0.000355552	0
17.125	-0.000530924	0
17.13	0.000295317	0
17.135	0.000123182	0
17.14	0.000952679	0
17.145	0.00278382	0
17.15	0.00361661	0
17.155	0.00545106	0
17.16	0.00728717	0
17.165	0.00712497	0
17.17	0.00696445	0
17.175	0.00680563	0
17.18	0.00764851	0
17.185	0.00549311	0
17.19	0.00333942	0
17.195	0.00218748	0
17.2	3.72685e-05	0
17.205	-0.00111119	0
17.21	-0.00225789	0
17.215	-0.00340282	0
17.22	-0.00354597	0
17.225	-0.00568734	0
17.23	-0.00682691	0
17.235	-0.00796467	0
17.24	-0.00910063	0
17.245	-0.0112348	0
17.25	-0.0133671	0
17.255	-0.0154975	0
17.26	-0.0166261	0
17.265	-0.0107529	0
17.27	-0.00487775	0
17.275	0.00199925	0
17.28	0.00787813	0
17.285	0.0557589	0
17.29	0.103642	0
17.295	0.151526	0
17.3	0.200413	0
17.305	0.201301	0
17.31	0.203192	1
17.315	0.205084	0
17.32	0.206978	0
17.325	0.143874	0
17.33	0.0817727	0
17.335	0.0186729	0
17.34	-0.0434249	0
17.345	-0.0585206	0
17.35	-0.0746144	0
17.355	-0.0897061	0
17.36	-0.105796	0
17.365	-0.0948835	0
17.37	-0.0829691	0
17.375	-0.0720527	0
17.38	-0.0611342	0
17.385	-0.0572136	0
17.39	-0.0542909	0
17.395	-0.0523662	0
17.4	-0.0484393	0
17.405	-0.0495103	0
17.41	-0.0495792	0
17.415	-0.049646	0
17.42	-0.0497106	0
17.425	-0.0487731	0
17.43	-0.0488334	0
17.435	-0.0478916	0
17.44	-0.0479475	0
17.445	-0.0470013	0
17.45	-0.0460529	0
17.455	-0.0451023	0
17.46	-0.0431495	0
17.465	-0.0431945	0
17.47	-0.0432372	0
17.475	-0.0432777	0
17.48	-0.0433159	0
17.485	-0.0433519	0
17.49	-0.0433856	0
17.495	-0.0424171	0
17.5	-0.0424462	0
17.505	-0.0384731	0
17.51	-0.0344977	0
17.515	-0.0305199	0
17.52	-0.0265398	0
17.525	-0.0205574	0
17.53	-0.0145727	0
17.535	-0.0095856	0
17.54	-0.00359615	0
17.545	0.000395663	0
17.55	0.00538985	0
17.555	0.00938643	0
17.56	0.0133854	0
17.565	0.0173868	0
17.57	0.0213905	0
17.575	0.0253967	0
17.58	0.0304054	0
17.585	0.0324165	0
17.59	0.03543	0
17.595	0.0374459	0
17.6	0.0404644	0
17.605	0.0394853	0
17.61	0.0375087	0
17.615	0.0365346	0
17.62	0.034563	0
17.625	0.0295939	0
17.63	0.0256273	0
17.635	0.0206633	0
17.64	0.0167018	0
17.645	0.0127428	0
17.65	0.00978645	0
17.655	0.00583261	0
17.66	0.00288136	0
17.665	0.00293268	0
17.67	0.0019866	0
17.675	0.00204312	0
17.68	0.00110226	0
17.685	0.00116401	0
17.69	0.00122839	0
17.695	0.00129541	0
17.7	0.00136508	0
17.705	0.0024374	0
17.71	0.00351239	0
17.715	0.00459005	0
17.72	0.0056704	0
17.725	0.00675344	0
17.73	0.00883918	0
17.735	0.00992764	0
17.74	0.0120188	0
17.745	0.0121127	0
17.75	0.0122093	0
17.755	0.0123087	0
17.76	0.0124109	0
17.765	0.0125158	0
17.77	0.0116235	0
17.775	0.0117339	0
17.78	0.0118472	0
17.785	0.0109632	0
17.79	0.0110821	0
17.795	0.0112038	0
17.8	0.0113283	0
17.805	0.0114557	0
17.81	0.0105859	0
17.815	0.0107189	0
17.82	0.00985486	0
17.825	0.00899365	0
17.83	0.00713533	0
17.835	0.0062799	0
17.84	0.00442738	0
17.845	0.00357776	0
17.85	0.00273106	0
17.855	0.000887289	0
17.86	4.64562e-05	0
17.865	-0.00079143	0
17.87	-0.00162636	0
17.875	-0.00245833	0
17.88	-0.00328732	0
17.885	-0.00411333	0
17.89	-0.00493635	0
17.895	-0.00575637	0
17.9	-0.00557338	0
17.905	-0.00538737	0
17.91	-0.00519833	0
17.915	-0.00500625	0
17.92	-0.00481113	0
17.925	-0.00361295	0
17.93	-0.00241171	0
17.935	-0.0012074	0
17.94	0	0
17.945	0.000210475	0
17.95	0.000423974	0
17.955	0.00164043	0
17.96	0.00185977	0
17.965	0.00208193	0
17.97	0.00230684	0
17.975	0.00253443	0
17.98	0.00276464	0
17.985	0.0019974	0
17.99	0.000232635	0
17.995	-0.000529719	0
18	-0.00128973	0
18.005	-0.00404747	0
18.01	-0.005803	0
18.015	-0.00855639	0
18.02	-0.0103077	0
18.025	-0.012057	0
18.03	-0.0128044	0
18.035	-0.0145499	0
18.04	-0.0152937	0
18.045	-0.0170356	0
18.05	-0.017776	0
18.055	-0.0185147	0
18.06	-0.0192519	0
18.065	-0.0189877	0
18.07	-0.018722	0
18.075	-0.0184551	0
18.08	-0.0181868	0
18.085	-0.0199174	0
18.09	-0.0206469	0
18.095	-0.0223753	0
18.1	-0.0231028	0
18.105	0.0161707	0
18.11	0.055445	0
18.115	0.0937201	0
18.12	0.132996	0
18.125	0.171272	0
18.13	0.208549	0
18.135	0.246827	0
18.14	0.285105	1
18.145	0.234383	0
18.15	0.184662	0
18.155	0.133941	0
18.16	0.0842196	0
18.165	0.0384987	0
18.17	-0.00722214	0
18.175	-0.051943	0
18.18	-0.098664	0
18.185	-0.0913852	0
18.19	-0.0841066	0
18.195	-0.0778284	0
18.2	-0.0705505	0
18.205	-0.064273	0
18.21	-0.0579961	0
18.215	-0.0517198	0
18.22	-0.0454441	0
18.225	-0.0451691	0
18.23	-0.0438949	0
18.235	-0.0436216	0
18.24	-0.0433492	0
18.245	-0.0430778	0
18.25	-0.0428074	0
18.255	-0.0425382	0
18.26	-0.0432702	0
18.265	-0.0420034	0
18.27	-0.040738	0
18.275	-0.039474	0
18.28	-0.0382114	0
18.285	-0.0359504	0
18.29	-0.034691	0
18.295	-0.0334332	0
18.3	-0.0321772	0
18.305	-0.031923	0
18.31	-0.0326707	0
18.315	-0.0324204	0
18.32	-0.032172	0
18.325	-0.0299257	0
18.33	-0.0276816	0
18.335	-0.0264397	0
18.34	-0.0242	0
18.345	-0.0189628	0
18.35	-0.0127279	0
18.355	-0.00649556	0
18.36	-0.000265758	0
18.365	0.00496142	0
18.37	0.0111859	0
18.375	0.0164076	0
18.38	0.0226265	0
18.385	0.0258425	0
18.39	0.0290555	0
18.395	0.0322655	0
18.4	0.0364724	0
18.405	0.0386762	0
18.41	0.0418766	0
18.415	0.0440738	0
18.42	0.0472676	0
18.425	0.048458	0
18.43	0.0496448	0
18.435	0.0508281	0
18.44	0.0520077	0
18.445	0.0491837	0
18.45	0.0463558	0
18.455	0.0435241	0
18.46	0.0406884	0
18.465	0.0368488	0
18.47	0.0340051	0
18.475	0.0301573	0
18.48	0.0273053	0
18.485	0.0254491	0
18.49	0.0245885	0
18.495	0.0227235	0
18.5	0.0218541	0
18.505	0.0209801	0
18.51	0.0211015	0
18.515	0.0212183	0
18.52	0.0213303	0
18.525	0.0224375	0
18.53	0.0245399	0
18.535	0.0256373	0
18.54	0.0277297	0
18.545	0.028817	0
18.55	0.0308992	0
18.555	0.0319762	0
18.56	0.0340479	0
18.565	0.0341142	0
18.57	0.0351752	0
18.575	0.0362306	0
18.58	0.0372805	0
18.585	0.0373248	0
18.59	0.0373633	0
18.595	0.0373962	0
18.6	0.0374232	0
18.605	0.0354443	0
18.61	0.0344594	0
18.615	0.0324686	0
18.62	0.0314716	0
18.625	0.0304684	0
18.63	0.0304591	0
18.635	0.0294434	0
18.64	0.0284213	0
18.645	0.0263929	0
18.65	0.0243579	0
18.655	0.0223163	0
18.66	0.0202681	0
18.665	0.0172132	0
18.67	0.0151515	0
18.675	0.012083	0
18.68	0.0100076	0
18.685	0.00892513	0
18.69	0.00783565	0
18.695	0.00673906	0
18.7	0.00663528	0
18.705	0.00552425	0
18.71	0.0054059	0
18.715	0.00428015	0
18.72	0.00414695	0
18.725	0.00300622	0
18.73	0.0028579	0
18.735	0.00170192	0
18.74	0.000538203	0
18.745	0.000366691	0
18.75	0.000187313	0
18.755	0	0
18.76	-0.000195285	0
18.765	-0.00139846	0
18.77	-0.00260941	0
18.775	-0.00282802	0
18.78	-0.00405417	0
18.785	-0.00428776	0
18.79	-0.00352867	0
18.795	-0.00377679	0
18.8	-0.003032	0
18.805	-0.00429419	0
18.81	-0.00556324	0
18.815	-0.00683905	0
18.82	-0.00712149	0
18.825	-0.00941046	0
18.83	-0.0117058	0
18.835	-0.0140075	0
18.84	-0.0153154	0
18.845	-0.0176293	0
18.85	-0.0189492	0
18.855	-0.0202749	0
18.86	-0.0216064	0
18.865	-0.0229434	0
18.87	-0.024286	0
18.875	-0.0256339	0
18.88	-0.0269872	0
18.885	-0.0273456	0
18.89	-0.026709	0
18.895	-0.0270774	0
18.9	-0.0274505	0
18.905	-0.0228284	0
18.91	-0.0192109	0
18.915	-0.0145979	0
18.92	-0.00998918	0
18.925	0.0406152	0
18.93	0.0922155	0
18.935	0.142812	0
18.94	0.194404	0
18.945	0.205993	0
18.95	0.218578	0
18.955	0.231159	1
18.96	0.243737	0
18.965	0.179311	0
18.97	0.115883	0
18.975	0.0524508	0
18.98	-0.010984	0
18.985	-0.0344217	0
18.99	-0.0578622	0
18.995	-0.0813053	0
19	-0.105751	0
19.005	-0.0951991	0
19.01	-0.0856495	0
19.015	-0.0751021	0
19.02	-0.0655568	0
19.025	-0.0600135	0
19.03	-0.0554721	0
19.035	-0.0499324	0
19.04	-0.0453943	0
19.045	-0.0448577	0
19.05	-0.0453226	0
19.055	-0.0457887	0
19.06	-0.0462561	0
19.065	-0.0457245	0
19.07	-0.0451938	0
19.075	-0.045664	0
19.08	-0.0461349	0
19.085	-0.0446065	0
19.09	-0.0420785	0
19.095	-0.0405509	0
19.1	-0.0390236	0
19.105	-0.0384964	0
19.11	-0.0379693	0
19.115	-0.0384421	0
19.12	-0.0379147	0
19.125	-0.038387	0
19.13	-0.0398589	0
19.135	-0.0403303	0
19.14	-0.0408011	0
19.145	-0.040271	0
19.15	-0.0387402	0
19.155	-0.0372083	0
19.16	-0.0356754	0
19.165	-0.0311412	0
19.17	-0.0266057	0
19.175	-0.0220688	0
19.18	-0.0175303	0
19.185	-0.0139902	0
19.19	-0.00944828	0
19.195	-0.00590448	0
19.2	-0.00135868	0
19.205	0.00218925	0
19.21	0.0057394	0
19.215	0.0082919	0
19.22	0.0118469	0
19.225	0.0154044	0
19.23	0.0199646	0
19.235	0.0235276	0
19.24	0.0270936	0
19.245	0.0276625	0
19.25	0.0292346	0
19.255	0.02981	0
19.26	0.0303887	0
19.265	0.0269709	0
19.27	0.0235567	0
19.275	0.0201462	0
19.28	0.0177396	0
19.285	0.0143368	0
19.29	0.0109382	0
19.295	0.00854365	0
19.3	0.00515341	0
19.305	0.00376758	0
19.31	0.00238624	0
19.315	0.00100953	0
19.32	0.000637549	0
19.325	0.000270416	0
19.33	-9.17558e-05	0
19.335	-0.000448853	0
19.34	-0.000800763	0
19.345	-0.00014737	0
19.35	0.00151144	0
19.355	0.00217578	0
19.36	0.00384576	0
19.365	0.00352149	0
19.37	0.0042031	0
19.375	0.00489069	0
19.38	0.00558438	0
19.385	0.00428428	0
19.39	0.00399051	0
19.395	0.00270318	0
19.4	0.0014224	0
19.405	0.000148281	0
19.41	-0.000119054	0
19.415	-0.00137949	0
19.42	-0.00163293	0
19.425	-0.00187924	0
19.43	-0.00111832	0
19.435	-0.00135004	0
19.44	-0.000574311	0
19.445	-0.000791	0
19.45	0	0
19.455	0.000798773	0
19.46	0.00160528	0
19.465	0.00241944	0
19.47	0.00424118	0
19.475	0.00507044	0
19.48	0.00690713	0
19.485	0.00975119	0
19.49	0.0116025	0
19.495	0.0144611	0
19.5	0.0173268	0
19.505	0.0151996	0
19.51	0.0140794	0
19.515	0.0119661	0
19.52	0.0108597	0
19.525	0.00576005	0
19.53	0.000667112	0
19.535	-0.00541919	0
19.54	-0.0104989	0
19.545	-0.0145722	0
19.55	-0.018639	0
19.555	-0.0236995	0
19.56	-0.0277538	0
19.565	-0.0288018	0
19.57	-0.0308437	0
19.575	-0.0318796	0
19.58	-0.0339094	0
19.585	-0.0359334	0
19.59	-0.0389516	0
19.595	-0.040964	0
19.6	-0.0429707	0
19.605	-0.0309718	0
19.61	-0.0179673	0
19.615	-0.0059574	0
19.62	0.0070579	0
19.625	0.0620785	0
19.63	0.117104	0
19.635	0.172135	0
19.64	0.228172	0
19.645	0.224213	0
19.65	0.220259	1
19.655	0.21731	0
19.66	0.213366	0
19.665	0.146426	0
19.67	0.0794915	0
19.675	0.0125613	0
19.68	-0.0533644	0
19.685	-0.0702857	0
19.69	-0.0852025	0
19.695	-0.102115	0
19.7	-0.118023	0
19.705	-0.108928	0
19.71	-0.0998278	0
19.715	-0.0897239	0
19.72	-0.0806161	0
19.725	-0.0785044	0
19.73	-0.0763889	0
19.735	-0.0742698	0
19.74	-0.072147	0
19.745	-0.0720206	0
19.75	-0.0718907	0
19.755	-0.0727574	0
19.76	-0.0726208	0
19.765	-0.0714809	0
19.77	-0.0713378	0
19.775	-0.0701915	0
19.78	-0.0690423	0
19.785	-0.06889	0
19.79	-0.0687348	0
19.795	-0.0675768	0
19.8	-0.067416	0
19.805	-0.0682525	0
19.81	-0.0690864	0
19.815	-0.0699178	0
19.82	-0.0697467	0
19.825	-0.0705732	0
19.83	-0.0703974	0
19.835	-0.0702193	0
19.84	-0.0700391	0
19.845	-0.0678567	0
19.85	-0.0656723	0
19.855	-0.063486	0
19.86	-0.0612978	0
19.865	-0.0581077	0
19.87	-0.0549159	0
19.875	-0.0517225	0
19.88	-0.0475274	0
19.885	-0.0443309	0
19.89	-0.0411329	0
19.895	-0.0379335	0
19.9	-0.0337328	0
19.905	-0.0295309	0
19.91	-0.0253278	0
19.915	-0.0201236	0
19.92	-0.0159185	0
19.925	-0.0117124	0
19.93	-0.00650543	0
19.935	-0.00229768	0
19.94	0.00191079	0
19.945	0.0031199	0
19.95	0.00432958	0
19.955	0.00453976	0
19.96	0.00575036	0
19.965	0.00396132	0
19.97	0.00217255	0
19.975	0.000383988	0
19.98	-0.00140444	0
19.985	-0.00319281	0
19.99	-0.00498119	0
19.995	-0.00676967	0
20	-0.0085583	0
20.005	-0.00934716	0
20.01	-0.0101363	0
20.015	-0.0109259	0
20.02	-0.0117159	0
20.025	-0.0105064	0
20.03	-0.00929753	0
20.035	-0.00808932	0
20.04	-0.00688186	0
20.045	-0.00567522	0
20.05	-0.00346947	0
20.055	-0.00126468	0
20.06	0.00093907	0
20.065	0.00314171	0
20.07	0.00434317	0
20.075	0.00654337	0
20.08	0.00774225	0
20.085	0.00893972	0
20.09	0.00913572	0
20.095	0.0103302	0
20.1	0.011523	0
20.105	0.0117141	0
20.11	0.0119035	0
20.115	0.013091	0
20.12	0.0132766	0
20.125	0.0134603	0
20.13	0.0136418	0
20.135	0.0128213	0
20.14	0.0129985	0
20.145	0.0121734	0
20.15	0.011346	0
20.155	0.00951622	0
20.16	0.00868389	0
20.165	0.007849	0
20.17	0.00701146	0
20.175	0.0051712	0
20.18	0.00432816	0
20.185	0.00448225	0
20.19	0.0036334	0
20.195	0.00378155	0
20.2	0.00392661	0
20.205	0.00306852	0
20.21	0.0032072	0
20.215	0.00334258	0
20.22	0.00347458	0
20.225	0.00260314	0
20.23	0.00272817	0
20.235	0.00284961	0
20.24	0.00296739	0
20.245	0.00308142	0
20.25	0.00319164	0
20.255	0.00329798	0
20.26	0.00340035	0
20.265	0.0024987	0
20.27	0.00259294	0
20.275	0.001683	0
20.28	0.00176881	0
20.285	0.000850294	0
20.29	0.000927382	0
20.295	0	0
20.3	6.80942e-05	0
20.305	0.000131693	0
20.31	0.000190844	0
20.315	0.000245596	0
20.32	0.000295996	0
20.325	0.00134209	0
20.33	0.00138393	0
20.335	0.00242157	0
20.34	0.00345504	0
20.345	0.0044844	0
20.35	0.0065097	0
20.355	0.00753099	0
20.36	0.0095483	0
20.365	0.0085617	0
20.37	0.00857122	0
20.375	0.00857693	0
20.38	0.00857885	0
20.385	0.00657705	0
20.39	0.00557157	0
20.395	0.00456246	0
20.4	0.00354976	0
20.405	0.00253353	0
20.41	0.00151381	0
20.415	0.000490651	0
20.42	0.000464101	0
20.425	-0.000565793	0
20.43	-0.00159898	0
20.435	-0.00263542	0
20.44	-0.00367505	0
20.445	-0.00571784	0
20.45	-0.00776373	0
20.455	-0.00981268	0
20.46	-0.0118646	0
20.465	0.0340805	0
20.47	0.0800226	0
20.475	0.125962	0
20.48	0.172898	0
20.485	0.204832	0
20.49	0.236763	0
20.495	0.268692	1
20.5	0.301617	0
20.505	0.24254	0
20.51	0.183461	0
20.515	0.124379	0
20.52	0.0652948	0
20.525	0.0232081	0
20.53	-0.0188809	0
20.535	-0.0609722	0
20.54	-0.103066	0
20.545	-0.0951615	0
20.55	-0.0882594	0
20.555	-0.0813593	0
20.56	-0.0744614	0
20.565	-0.0665654	0
20.57	-0.0596714	0
20.575	-0.0527792	0
20.58	-0.044889	0
20.585	-0.0450005	0
20.59	-0.0441138	0
20.595	-0.0432288	0
20.6	-0.0423455	0
20.605	-0.0424638	0
20.61	-0.0425837	0
20.615	-0.043705	0
20.62	-0.0438279	0
20.625	-0.0439522	0
20.63	-0.0440778	0
20.635	-0.0442048	0
20.64	-0.043333	0
20.645	-0.0444625	0
20.65	-0.0445932	0
20.655	-0.045725	0
20.66	-0.0458579	0
20.665	-0.0469918	0
20.67	-0.0481268	0
20.675	-0.0492626	0
20.68	-0.0503994	0
20.685	-0.049537	0
20.69	-0.0486754	0
20.695	-0.0478146	0
20.7	-0.0469544	0
20.705	-0.0430949	0
20.71	-0.0392361	0
20.715	-0.0353778	0
20.72	-0.03052	0
20.725	-0.0266626	0
20.73	-0.0228057	0
20.735	-0.0189491	0
20.74	-0.0150929	0
20.745	-0.0122369	0
20.75	-0.00838121	0
20.755	-0.00452564	0
20.76	-0.000670204	0
20.765	0.00418515	0
20.77	0.00804048	0
20.775	0.0128958	0
20.78	0.0167512	0
20.785	0.0186068	0
20.79	0.0194624	0
20.795	0.0213183	0
20.8	0.0221745	0
20.805	0.0190309	0
20.81	0.0168877	0
20.815	0.0137449	0
20.82	0.0106026	0
20.825	0.00746073	0
20.83	0.00531942	0
20.835	0.00217871	0
20.84	3.86338e-05	0
20.845	-0.00110075	0
20.85	-0.0012394	0
20.855	-0.00137726	0
20.86	-0.00151429	0
20.865	-0.00165044	0
20.87	-0.00178567	0
20.875	-0.00191991	0
20.88	-0.00105313	0
20.885	-0.00118528	0
20.89	-0.000316309	0
20.895	0.000553832	0
20.9	0.00142519	0
20.905	0.00229781	0
20.91	0.00417175	0
20.915	0.00504704	0
20.92	0.00692374	0
20.925	0.00780191	0
20.93	0.00768157	0
20.935	0.00856279	0
20.94	0.00944561	0
20.945	0.00833007	0
20.95	0.00721624	0
20.955	0.00710414	0
20.96	0.00599384	0
20.965	0.00588538	0
20.97	0.00577881	0
20.975	0.00467418	0
20.98	0.00457153	0
20.985	0.00447091	0
20.99	0.00337238	0
20.995	0.00327597	0
21	0.00218174	0
21.005	0.00108973	0
21.01	0	0
21.015	-0.00208742	0
21.02	-0.00317253	0
21.025	-0.00225533	0
21.03	-0.000335837	0
21.035	0.000585951	0
21.04	0.00251002	0
21.045	0.00543638	0
21.05	0.009365	0
21.055	0.0122959	0
21.06	0.016229	0
21.065	0.0151644	0
21.07	0.014102	0
21.075	0.0120419	0
21.08	0.010984	0
21.085	0.00592832	0
21.09	0.000874846	0
21.095	-0.00417642	0
21.1	-0.00822549	0
21.105	-0.0112724	0
21.11	-0.0143171	0
21.115	-0.0173596	0
21.12	-0.0203999	0
21.125	-0.0214381	0
21.13	-0.0224741	0
21.135	-0.023508	0
21.14	-0.0235397	0
21.145	-0.0255693	0
21.15	-0.0275968	0
21.155	-0.0296222	0
21.16	-0.0316454	0
21.165	-0.0196665	0
21.17	-0.00768556	0
21.175	0.0032975	0
21.18	0.0152826	0
21.185	0.0752699	0
21.19	0.135259	0
21.195	0.19525	0
21.2	0.255244	0
21.205	0.248239	0
21.21	0.241237	1
21.215	0.234236	0
21.22	0.227238	0
21.225	0.154242	0
21.23	0.0812471	0
21.235	0.00825471	0
21.24	-0.0647357	0
21.245	-0.0757241	0
21.25	-0.0877105	0
21.255	-0.099695	0
21.26	-0.111677	0
21.265	-0.100658	0
21.27	-0.0896366	0
21.275	-0.0786132	0
21.28	-0.0685878	0
21.285	-0.0655606	0
21.29	-0.0635314	0
21.295	-0.0605003	0
21.3	-0.0574673	0
21.305	-0.0584324	0
21.31	-0.0583955	0
21.315	-0.0583568	0
21.32	-0.0583162	0
21.325	-0.0582738	0
21.33	-0.0572294	0
21.335	-0.0561832	0
21.34	-0.0551351	0
21.345	-0.0540852	0
21.35	-0.0520335	0
21.355	-0.0509799	0
21.36	-0.0499245	0
21.365	-0.0498673	0
21.37	-0.0498082	0
21.375	-0.0497474	0
21.38	-0.0486847	0
21.385	-0.0496203	0
21.39	-0.0495541	0
21.395	-0.0504861	0
21.4	-0.0504163	0
21.405	-0.0483448	0
21.41	-0.0452715	0
21.415	-0.0431965	0
21.42	-0.0411197	0
21.425	-0.0360412	0
21.43	-0.030961	0
21.435	-0.025879	0
21.44	-0.0207953	0
21.445	-0.01771	0
21.45	-0.0136229	0
21.455	-0.0105342	0
21.46	-0.00644372	0
21.465	-0.0033516	0
21.47	-0.000257816	0
21.475	0.00283763	0
21.48	0.00693473	0
21.485	0.00903348	0
21.49	0.0121339	0
21.495	0.0142359	0
21.5	0.0173395	0
21.505	0.0154448	0
21.51	0.0135517	0
21.515	0.0116602	0
21.52	0.00977026	0
21.525	0.00588194	0
21.53	0.00199519	0
21.535	-0.00188998	0
21.54	-0.00577357	0
21.545	-0.00765561	0
21.55	-0.00853609	0
21.555	-0.010415	0
21.56	-0.0112924	0
21.565	-0.0111683	0
21.57	-0.0110426	0
21.575	-0.0109154	0
21.58	-0.0107867	0
21.585	-0.0106565	0
21.59	-0.0105248	0
21.595	-0.00939166	0
21.6	-0.00925699	0
21.605	-0.00812084	0
21.61	-0.00598323	0
21.615	-0.00484415	0
21.62	-0.00370362	0
21.625	-0.00156164	0
21.63	0.000581776	0
21.635	0.00172663	0
21.64	0.0038729	0
21.645	0.0050206	0
21.65	0.0061697	0
21.655	0.00732022	0
21.66	0.00947212	0
21.665	0.00862542	0
21.67	0.0087801	0
21.675	0.00793616	0
21.68	0.00809358	0
21.685	0.00725237	0
21.69	0.00741251	0
21.695	0.006574	0
21.7	0.00673682	0
21.705	0.00690098	0
21.71	0.00606647	0
21.715	0.00623327	0
21.72	0.00640139	0
21.725	0.00457081	0
21.73	0.00374152	0
21.735	0.00291353	0
21.74	0.00208682	0
21.745	0.00126138	0
21.75	0.00043721	0
21.755	-0.000385697	0
21.76	-0.00020735	0
21.765	-0.00102776	0
21.77	-0.000846923	0
21.775	-0.00166486	0
21.78	-0.00148157	0
21.785	-0.00129706	0
21.79	-0.000111337	0
21.795	7.55865e-05	0
21.8	0.00126371	0
21.805	0.00145302	0
21.81	0.00164351	0
21.815	0.00183518	0
21.82	0.00302801	0
21.825	0.00222201	0
21.83	0.00241716	0
21.835	0.00161346	0
21.84	0.00181089	0
21.845	0.00200946	0
21.85	0.00220915	0
21.855	0.00240997	0
21.86	0.00261189	0
21.865	0.00181491	0
21.87	0.00101904	0
21.875	0.000224247	0
21.88	0.000430541	0
21.885	-0.00036209	0
21.89	-0.00115365	0
21.895	-0.00194416	0
21.9	-0.00173361	0
21.905	-0.00152201	0
21.91	-0.00130937	0
21.915	-0.00109571	0
21.92	-0.000881013	0
21.925	-0.000665302	0
21.93	-0.000448581	0
21.935	-0.000230856	0
21.94	0.000987865	0
21.945	0.000207574	0
21.95	0.000428266	0
21.955	0.000649933	0
21.96	0.000872567	0
21.965	9.6161e-05	0
21.97	-0.000679291	0
21.975	-0.000453797	0
21.98	-0.00122736	0
21.985	0	0
21.99	0.000228284	0
21.995	0.00145746	0
22	0.00168748	0
22.005	0.00291831	0
22.01	0.00414992	0
22.015	0.00538226	0
22.02	0.0066153	0
22.025	0.00784901	0
22.03	0.0100833	0
22.035	0.0113183	0
22.04	0.0135537	0
22.045	0.0107897	0
22.05	0.00902614	0
22.055	0.00726302	0
22.06	0.00550031	0
22.065	0.00273795	0
22.07	-2.40778e-05	0
22.075	-0.00278582	0
22.08	-0.00554732	0
22.085	-0.00730861	0
22.09	-0.00806972	0
22.095	-0.0098307	0
22.1	-0.0105916	0
22.105	-0.0123524	0
22.11	-0.0141132	0
22.115	-0.015874	0
22.12	-0.0176349	0
22.125	-0.0203958	0
22.13	-0.0241569	0
22.135	-0.0269181	0
22.14	-0.0306796	0
22.145	-0.00444128	0
22.15	0.0217968	0
22.155	0.0480345	0
22.16	0.0742718	0
22.165	0.139509	0
22.17	0.204745	0
22.175	0.269981	0
22.18	0.336217	0
22.185	0.305452	1
22.19	0.274687	0
22.195	0.24392	0
22.2	0.213154	0
22.205	0.138386	0
22.21	0.0646178	0
22.215	-0.00915116	0
22.22	-0.081921	0
22.225	-0.0806916	0
22.23	-0.0794631	0
22.235	-0.0782355	0
22.24	-0.0770089	0
22.245	-0.0657833	0
22.25	-0.0555587	0
22.255	-0.0443352	0
22.26	-0.0341128	0
22.265	-0.0318915	0
22.27	-0.0296714	0
22.275	-0.0274525	0
22.28	-0.0252349	0
22.285	-0.0250186	0
22.29	-0.0238035	0
22.295	-0.0235899	0
22.3	-0.0223777	0
22.305	-0.0201669	0
22.31	-0.0189576	0
22.315	-0.0167498	0
22.32	-0.0155435	0
22.325	-0.0143389	0
22.33	-0.0131359	0
22.335	-0.0129345	0
22.34	-0.0117349	0
22.345	-0.011537	0
22.35	-0.0103409	0
22.355	-0.0101466	0
22.36	-0.00995412	0
22.365	-0.00676357	0
22.37	-0.00357495	0
22.375	-0.0013883	0
22.38	0.00179635	0
22.385	0.00697896	0
22.39	0.0131595	0
22.395	0.0183379	0
22.4	0.0235141	0
22.405	0.0286882	0
22.41	0.03386	0
22.415	0.0390296	0
22.42	0.0451968	0
22.425	0.0483617	0
22.43	0.0525242	0
22.435	0.0566843	0
22.44	0.060842	0
22.445	0.0639971	0
22.45	0.0671497	0
22.455	0.0712998	0
22.46	0.0744472	0
22.465	0.076592	0
22.47	0.0777341	0
22.475	0.0798735	0
22.48	0.0820102	0
22.485	0.078144	0
22.49	0.075275	0
22.495	0.0714032	0
22.5	0.0685284	0
22.505	0.0626507	0
22.51	0.05777	0
22.515	0.0528863	0
22.52	0.0479995	0
22.525	0.0451096	0
22.53	0.0422166	0
22.535	0.0393205	0
22.54	0.0364211	0
22.545	0.0345185	0
22.55	0.0336125	0
22.555	0.0327033	0
22.56	0.0317907	0
22.565	0.0318747	0
22.57	0.0319553	0
22.575	0.0320324	0
22.58	0.033106	0
22.585	0.0331761	0
22.59	0.0342426	0
22.595	0.0343054	0
22.6	0.0353646	0
22.605	0.0344201	0
22.61	0.0344718	0
22.615	0.0345198	0
22.62	0.034564	0
22.625	0.0336043	0
22.63	0.0316408	0
22.635	0.0306733	0
22.64	0.0297019	0
22.645	0.0277264	0
22.65	0.026747	0
22.655	0.0247634	0
22.66	0.0237758	0
22.665	0.023784	0
22.67	0.023788	0
22.675	0.0227878	0
22.68	0.0227833	0
22.685	0.0217745	0
22.69	0.0207614	0
22.695	0.019744	0
22.7	0.0197221	0
22.705	0.0186958	0
22.71	0.0176649	0
22.715	0.0166296	0
22.72	0.0155897	0
22.725	0.0155452	0
22.73	0.0144961	0
22.735	0.0144423	0
22.74	0.0133837	0
22.745	0.0123205	0
22.75	0.0102524	0
22.755	0.00917953	0
22.76	0.00810179	0
22.765	0.00601915	0
22.77	0.00493158	0
22.775	0.00383903	0
22.78	0.00274146	0
22.785	0.00163885	0
22.79	0.00153115	0
22.795	0.00141833	0
22.8	0.00130035	0
22.805	0.00117716	0
22.81	0.00104874	0
22.815	0.000915047	0
22.82	0.000776039	0
22.825	0.000631681	0
22.83	0.000481936	0
22.835	0.000326766	0
22.84	0.000166133	0
22.845	0	0
22.85	-0.000171651	0
22.855	-0.000348763	0
22.86	-0.000531256	0
22.865	-0.000719054	0
22.87	-0.000912077	0
22.875	-0.00111025	0
22.88	-0.00131349	0
22.885	-0.000521729	0
22.89	0.00026512	0
22.895	0.00104713	0
22.9	0.00182438	0
22.905	0.000596956	0
22.91	-0.000635077	0
22.915	-0.00187164	0
22.92	-0.00311264	0
22.925	-0.00535802	0
22.93	-0.00660769	0
22.935	-0.00886157	0
22.94	-0.0101196	0
22.945	-0.0113817	0
22.95	-0.0126477	0
22.955	-0.0139177	0
22.96	-0.0151915	0
22.965	-0.016469	0
22.97	-0.0177502	0
22.975	-0.019035	0
22.98	-0.0203233	0
22.985	-0.0236151	0
22.99	-0.0269102	0
22.995	-0.0302086	0
23	-0.0325102	0
23.005	-0.0138149	0
23.01	0.00587736	0
23.015	0.0245666	0
23.02	0.044253	0
23.025	0.107937	0
23.03	0.172617	0
23.035	0.236296	0
23.04	0.300971	0
23.045	0.278644	1
23.05	0.257315	0
23.055	0.235983	0
23.06	0.214649	0
23.065	0.137313	0
23.07	0.0599749	0
23.075	-0.0173654	0
23.08	-0.0937076	0
23.085	-0.0990518	0
23.09	-0.105398	0
23.095	-0.110745	0
23.1	-0.117095	0
23.105	-0.107445	0
23.11	-0.0967978	0
23.115	-0.0871516	0
23.12	-0.0765067	0
23.125	-0.0748631	0
23.13	-0.0732206	0
23.135	-0.0715793	0
23.14	-0.0699389	0
23.145	-0.0692995	0
23.15	-0.069661	0
23.155	-0.0700233	0
23.16	-0.0703862	0
23.165	-0.0687498	0
23.17	-0.068114	0
23.175	-0.0664787	0
23.18	-0.0658437	0
23.185	-0.0642091	0
23.19	-0.0625747	0
23.195	-0.0619405	0
23.2	-0.0603063	0
23.205	-0.0606722	0
23.21	-0.060038	0
23.215	-0.0604037	0
23.22	-0.0607692	0
23.225	-0.0601343	0
23.23	-0.0594991	0
23.235	-0.0588634	0
23.24	-0.0582272	0
23.245	-0.0545903	0
23.25	-0.0509528	0
23.255	-0.0473145	0
23.26	-0.0436754	0
23.265	-0.0370353	0
23.27	-0.0313943	0
23.275	-0.0247522	0
23.28	-0.0181089	0
23.285	-0.0154643	0
23.29	-0.0118185	0
23.295	-0.00817129	0
23.3	-0.0045226	0
23.305	-0.000872364	0
23.31	0.0017795	0
23.315	0.00543306	0
23.32	0.0090884	0
23.325	0.0127456	0
23.33	0.0164047	0
23.335	0.0200659	0
23.34	0.0237291	0
23.345	0.0233945	0
23.35	0.0230621	0
23.355	0.0217321	0
23.36	0.0214045	0
23.365	0.0170793	0
23.37	0.0137567	0
23.375	0.00943679	0
23.38	0.00611955	0
23.385	0.0028051	0
23.39	0.000493511	0
23.395	-0.00281513	0
23.4	-0.00512074	0
23.405	-0.00742325	0
23.41	-0.00872258	0
23.415	-0.0100187	0
23.42	-0.0113114	0
23.425	-0.0116007	0
23.43	-0.0128866	0
23.435	-0.0131688	0
23.44	-0.0134474	0
23.445	-0.0127223	0
23.45	-0.0119934	0
23.455	-0.0112606	0
23.46	-0.0105239	0
23.465	-0.00978311	0
23.47	-0.00903821	0
23.475	-0.00828912	0
23.48	-0.00653576	0
23.485	-0.00577805	0
23.49	-0.00501592	0
23.495	-0.00424929	0
23.5	-0.00347807	0
23.505	-0.0027022	0
23.51	-0.000921589	0
23.515	-0.000136164	0
23.52	0.000654153	0
23.525	0.00144944	0
23.53	0.00224978	0
23.535	0.00305524	0
23.54	0.0038659	0
23.545	0.00368185	0
23.55	0.00250315	0
23.555	0.00232989	0
23.56	0.00116215	0
23.565	0	0
23.57	-0.0011565	0
23.575	-0.00230739	0
23.58	-0.00345273	0
23.585	-0.00159257	0
23.59	0.000273024	0
23.595	0.002144	0
23.6	0.00502029	0
23.605	0.00790184	0
23.61	0.0107886	0
23.615	0.0136805	0
23.62	0.0165775	0
23.625	0.0144795	0
23.63	0.0123865	0
23.635	0.0102984	0
23.64	0.00921512	0
23.645	0.00413666	0
23.65	6.29318e-05	0
23.655	-0.00500612	0
23.66	-0.00907055	0
23.665	-0.0111304	0
23.67	-0.0141858	0
23.675	-0.0162367	0
23.68	-0.0192833	0
23.685	-0.0193255	0
23.69	-0.0193635	0
23.695	-0.0193972	0
23.7	-0.0194268	0
23.705	-0.0234523	0
23.71	-0.0274738	0
23.715	-0.0314913	0
23.72	-0.0355049	0
23.725	0.00148542	0
23.73	0.0394795	0
23.735	0.0764773	0
23.74	0.114479	0
23.745	0.168484	0
23.75	0.222493	0
23.755	0.276505	0
23.76	0.33152	0
23.765	0.291539	1
23.77	0.251562	0
23.775	0.212587	0
23.78	0.172616	0
23.785	0.110648	0
23.79	0.0496834	0
23.795	-0.0122785	0
23.8	-0.0732373	0
23.805	-0.0761933	0
23.81	-0.0791464	0
23.815	-0.0820967	0
23.82	-0.0850442	0
23.825	-0.0769891	0
23.83	-0.0689313	0
23.835	-0.060871	0
23.84	-0.0528081	0
23.845	-0.0517428	0
23.85	-0.0506751	0
23.855	-0.0486051	0
23.86	-0.0475328	0
23.865	-0.0474582	0
23.87	-0.0473815	0
23.875	-0.0473027	0
23.88	-0.0472219	0
23.885	-0.046139	0
23.89	-0.0440543	0
23.895	-0.0429677	0
23.9	-0.0418792	0
23.905	-0.040789	0
23.91	-0.0396972	0
23.915	-0.0386036	0
23.92	-0.0375085	0
23.925	-0.0374119	0
23.93	-0.0373139	0
23.935	-0.0372144	0
23.94	-0.0371136	0
23.945	-0.0370115	0
23.95	-0.0359081	0
23.955	-0.0358037	0
23.96	-0.0346981	0
23.965	-0.0325914	0
23.97	-0.0304838	0
23.975	-0.0283752	0
23.98	-0.0262657	0
23.985	-0.0231555	0
23.99	-0.0200445	0
23.995	-0.0169327	0
24	-0.0128204	0
24.005	-0.00970744	0
24.01	-0.00559397	0
24.015	-0.00248004	0
24.02	0.0016343	0
24.025	0.00574899	0
24.03	0.010864	0
24.035	0.0149792	0
24.04	0.0190946	0
24.045	0.02221	0
24.05	0.0253256	0
24.055	0.0284411	0
24.06	0.0315566	0
24.065	0.030672	0
24.07	0.0297872	0
24.075	0.0289021	0
24.08	0.0280168	0
24.085	0.0241311	0
24.09	0.021245	0
24.095	0.0173584	0
24.1	0.0134713	0
24.105	0.0115836	0
24.11	0.00969525	0
24.115	0.0068062	0
24.12	0.00491639	0
24.125	0.00502575	0
24.13	0.00513424	0
24.135	0.00524179	0
24.14	0.00534834	0
24.145	0.00645383	0
24.15	0.00855821	0
24.155	0.00966142	0
24.16	0.0107634	0
24.165	0.0128641	0
24.17	0.0149634	0
24.175	0.0170614	0
24.18	0.0191578	0
24.185	0.0202528	0
24.19	0.0213461	0
24.195	0.0214379	0
24.2	0.0225279	0
24.205	0.0216161	0
24.21	0.0217026	0
24.215	0.0207872	0
24.22	0.0208698	0
24.225	0.0199505	0
24.23	0.0200291	0
24.235	0.0191055	0
24.24	0.0191799	0
24.245	0.019252	0
24.25	0.0193218	0
24.255	0.0193893	0
24.26	0.0194543	0
24.265	0.0185169	0
24.27	0.017577	0
24.275	0.0166346	0
24.28	0.0156894	0
24.285	0.0137416	0
24.29	0.0127911	0
24.295	0.0118377	0
24.3	0.0108815	0
24.305	0.00892229	0
24.31	0.00796014	0
24.315	0.00599494	0
24.32	0.00502664	0
24.325	0.00405518	0
24.33	0.0030805	0
24.335	0.00210254	0
24.34	0.00112125	0
24.345	0.00113656	0
24.35	0.00114841	0
24.355	0.00115675	0
24.36	0.00116153	0
24.365	0.00116267	0
24.37	0.00216013	0
24.375	0.00215384	0
24.38	0.00214374	0
24.385	0.00212978	0
24.39	0.0021119	0
24.395	0.00209004	0
24.4	0.00206415	0
24.405	0.00103415	0
24.41	0	0
24.415	-0.00103834	0
24.42	-0.00108084	0
24.425	-0.00212742	0
24.43	-0.00317802	0
24.435	-0.00323258	0
24.44	-0.00429103	0
24.445	-0.00335331	0
24.45	-0.00241936	0
24.455	-0.00148911	0
24.46	0.000437506	0
24.465	0.00136055	0
24.47	0.00228008	0
24.475	0.00319617	0
24.48	0.00410888	0
24.485	0.00301827	0
24.49	0.00192441	0
24.495	0.000827363	0
24.5	-0.000272809	0
24.505	-0.00137604	0
24.51	-0.00248227	0
24.515	-0.00359143	0
24.52	-0.00470345	0
24.525	-0.00681828	0
24.53	-0.00793585	0
24.535	-0.0090561	0
24.54	-0.010179	0
24.545	-0.0133044	0
24.55	-0.0164322	0
24.555	-0.0195625	0
24.56	-0.0216952	0
24.565	-0.0128302	0
24.57	-0.00396733	0
24.575	0.00489334	0
24.58	0.0147519	0
24.585	0.0796084	0
24.59	0.145463	0
24.595	0.211316	0
24.6	0.277166	0
24.605	0.278016	0
24.61	0.278863	1
24.615	0.279708	0
24.62	0.280553	0
24.625	0.200395	0
24.63	0.121236	0
24.635	0.041076	0
24.64	-0.0380856	0
24.645	-0.0582485	0
24.65	-0.0774126	0
24.655	-0.0965778	0
24.66	-0.116744	0
24.665	-0.107911	0
24.67	-0.0990796	0
24.675	-0.0902487	0
24.68	-0.0814186	0
24.685	-0.0785893	0
24.69	-0.0757607	0
24.695	-0.0729327	0
24.7	-0.0701052	0
24.705	-0.0692783	0
24.71	-0.0684518	0
24.715	-0.0676256	0
24.72	-0.0667997	0
24.725	-0.0659741	0
24.73	-0.0641487	0
24.735	-0.0633234	0
24.74	-0.0614981	0
24.745	-0.0596728	0
24.75	-0.0578474	0
24.755	-0.0570219	0
24.76	-0.0551961	0
24.765	-0.0553701	0
24.77	-0.0555438	0
24.775	-0.055717	0
24.78	-0.0558898	0
24.785	-0.057062	0
24.79	-0.0572337	0
24.795	-0.0574047	0
24.8	-0.0575749	0
24.805	-0.0557444	0
24.81	-0.053913	0
24.815	-0.0520808	0
24.82	-0.0492475	0
24.825	-0.0454132	0
24.83	-0.0405778	0
24.835	-0.0357412	0
24.84	-0.0309034	0
24.845	-0.0270642	0
24.85	-0.0222237	0
24.855	-0.0173818	0
24.86	-0.0125384	0
24.865	-0.00769343	0
24.87	-0.00184684	0
24.875	0.00300143	0
24.88	0.00785146	0
24.885	0.0117033	0
24.89	0.016557	0
24.895	0.0204127	0
24.9	0.0252703	0
24.905	0.0241301	0
24.91	0.0229919	0
24.915	0.021856	0
24.92	0.0217223	0
24.925	0.017591	0
24.93	0.013462	0
24.935	0.0103355	0
24.94	0.00621153	0
24.945	0.00409013	0
24.95	0.00197137	0
24.955	-0.00114467	0
24.96	-0.00325794	0
24.965	-0.00336837	0
24.97	-0.00247589	0
24.975	-0.00258045	0
24.98	-0.00168197	0
24.985	-0.000780404	0
24.99	0.000124326	0
24.995	0.00103228	0
25	0.00294352	0
25.005	0.00385812	0
25.01	0.00477613	0
25.015	0.00569762	0
25.02	0.00662265	0
25.025	0.0075513	0
25.03	0.00948361	0
25.035	0.0104197	0
25.04	0.0113595	0
25.045	0.0113032	0
25.05	0.0112509	0
25.055	0.0112025	0
25.06	0.0111582	0
25.065	0.0101181	0
25.07	0.00908207	0
25.075	0.00805033	0
25.08	0.0070229	0
25.085	0.00699985	0
25.09	0.00698124	0
25.095	0.00696714	0
25.1	0.00695761	0
25.105	0.00595271	0
25.11	0.00495252	0
25.115	0.00395708	0
25.12	0.00396648	0
25.125	0.00198076	0
25.13	0	0
25.135	-0.000975761	0
25.14	-0.00294655	0
25.145	-0.00191243	0
25.15	-0.000873448	0
25.155	-0.000829652	0
25.16	0.000218902	0
25.165	0.00427216	0
25.17	0.00833008	0
25.175	0.0123926	0
25.18	0.0164597	0
25.185	0.0155312	0
25.19	0.0146072	0
25.195	0.0136876	0
25.2	0.0127724	0
25.205	0.00786143	0
25.21	0.0029547	0
25.215	-0.00194784	0
25.22	-0.00684625	0
25.225	-0.0107406	0
25.23	-0.0136309	0
25.235	-0.0165172	0
25.24	-0.0193996	0
25.245	-0.0212781	0
25.25	-0.0231528	0
25.255	-0.0250238	0
25.26	-0.025891	0
25.265	-0.0277545	0
25.27	-0.0296145	0
25.275	-0.0314709	0
25.28	-0.0333238	0
25.285	-0.0161732	0
25.29	0.00198079	0
25.295	0.0201381	0
25.3	0.0382988	0
25.305	0.104463	0
25.31	0.16963	0
25.315	0.2358	0
25.32	0.300973	0
25.325	0.28515	0
25.33	0.270329	1
25.335	0.254511	0
25.34	0.238696	0
25.345	0.160884	0
25.35	0.083075	0
25.355	0.00526846	0
25.36	-0.0725354	0
25.365	-0.0803366	0
25.37	-0.0881353	0
25.375	-0.0969314	0
25.38	-0.105725	0
25.385	-0.0945164	0
25.39	-0.0843053	0
25.395	-0.0740919	0
25.4	-0.0638763	0
25.405	-0.0606584	0
25.41	-0.0574384	0
25.415	-0.0542163	0
25.42	-0.0509921	0
25.425	-0.050766	0
25.43	-0.0505379	0
25.435	-0.0503079	0
25.44	-0.0490761	0
25.445	-0.0488425	0
25.45	-0.0486071	0
25.455	-0.0473701	0
25.46	-0.0471314	0
25.465	-0.0458912	0
25.47	-0.0446494	0
25.475	-0.0434062	0
25.48	-0.0411615	0
25.485	-0.0409155	0
25.49	-0.0406682	0
25.495	-0.0404196	0
25.5	-0.0401697	0
25.505	-0.0409188	0
25.51	-0.0406667	0
25.515	-0.0404135	0
25.52	-0.0401594	0
25.525	-0.0369043	0
25.53	-0.0346483	0
25.535	-0.0313914	0
25.54	-0.0281337	0
25.545	-0.0228754	0
25.55	-0.0176163	0
25.555	-0.0123565	0
25.56	-0.00709623	0
25.565	-0.00383538	0
25.57	0.000425949	0
25.575	0.00468771	0
25.58	0.00894985	0
25.585	0.0132123	0
25.59	0.0164751	0
25.595	0.020738	0
25.6	0.0240012	0
25.605	0.0262644	0
25.61	0.0285277	0
25.615	0.0307911	0
25.62	0.0340544	0
25.625	0.0323176	0
25.63	0.0305806	0
25.635	0.0298435	0
25.64	0.0281061	0
25.645	0.0253684	0
25.65	0.0226304	0
25.655	0.019892	0
25.66	0.0171531	0
25.665	0.0154137	0
25.67	0.0136737	0
25.675	0.0119332	0
25.68	0.0111919	0
25.685	0.01045	0
25.69	0.00970727	0
25.695	0.00996373	0
25.7	0.00921932	0
25.705	0.010474	0
25.71	0.0107277	0
25.715	0.0119803	0
25.72	0.0132319	0
25.725	0.0154824	0
25.73	0.0177316	0
25.735	0.0199796	0
25.74	0.0222264	0
25.745	0.0234718	0
25.75	0.0257158	0
25.755	0.0269583	0
25.76	0.0291994	0
25.765	0.0294389	0
25.77	0.0306768	0
25.775	0.030913	0
25.78	0.0321476	0
25.785	0.0303804	0
25.79	0.0296113	0
25.795	0.0288404	0
25.8	0.0280676	0
25.805	0.0262928	0
25.81	0.025516	0
25.815	0.0247372	0
25.82	0.0239562	0
25.825	0.023173	0
25.83	0.0223876	0
25.835	0.0225999	0
25.84	0.0218099	0
25.845	0.0210175	0
25.85	0.0192227	0
25.855	0.0184254	0
25.86	0.0176255	0
25.865	0.0168231	0
25.87	0.016018	0
25.875	0.0152102	0
25.88	0.0143996	0
25.885	0.0135863	0
25.89	0.0127701	0
25.895	0.011951	0
25.9	0.0121289	0
25.905	0.0113039	0
25.91	0.0114757	0
25.915	0.0116445	0
25.92	0.01181	0
25.925	0.0109724	0
25.93	0.0111315	0
25.935	0.0102873	0
25.94	0.0104397	0
25.945	0.0105886	0
25.95	0.00973411	0
25.955	0.00987606	0
25.96	0.0100144	0
25.965	0.00914917	0
25.97	0.00828021	0
25.975	0.00740752	0
25.98	0.00753103	0
25.985	0.0066507	0
25.99	0.00576647	0
25.995	0.0048783	0
26	0.00398612	0
26.005	0.00408989	0
26.01	0.00318955	0
26.015	0.00328506	0
26.02	0.00237636	0
26.025	0.00146339	0
26.03	0.00154611	0
26.035	0.00062447	0
26.04	-0.000301593	0
26.045	-0.000232125	0
26.05	-0.00016718	0
26.055	-0.000106809	0
26.06	-5.10652e-05	0
26.065	0	0
26.07	0.00104635	0
26.075	0.00108802	0
26.08	0.00112506	0
26.085	0.00115752	0
26.09	0.00118545	0
26.095	0.00120889	0
26.1	0.00222791	0
26.105	0.00324254	0
26.11	0.00525284	0
26.115	0.00725887	0
26.12	0.00926066	0
26.125	0.00825827	0
26.13	0.00825174	0
26.135	0.00724114	0
26.14	0.00722651	0
26.145	0.00420789	0
26.15	0.00218534	0
26.155	0.000158913	0
26.16	-0.00187135	0
26.165	-0.00290539	0
26.17	-0.00394316	0
26.175	-0.00598462	0
26.18	-0.0070297	0
26.185	-0.00807837	0
26.19	-0.0101306	0
26.195	-0.0111863	0
26.2	-0.0122454	0
26.205	-0.0153079	0
26.21	-0.0183737	0
26.215	-0.0214428	0
26.22	-0.0245151	0
26.225	0.000409342	0
26.23	0.0253307	0
26.235	0.051249	0
26.24	0.0761642	0
26.245	0.140076	0
26.25	0.204986	0
26.255	0.268892	0
26.26	0.333796	0
26.265	0.302697	1
26.27	0.271595	0
26.275	0.24049	0
26.28	0.209383	0
26.285	0.133273	0
26.29	0.0571607	0
26.295	-0.0189541	0
26.3	-0.0940713	0
26.305	-0.093191	0
26.31	-0.0933129	0
26.315	-0.0924372	0
26.32	-0.0925637	0
26.325	-0.0816923	0
26.33	-0.0718231	0
26.335	-0.060956	0
26.34	-0.0510909	0
26.345	-0.0492278	0
26.35	-0.0483666	0
26.355	-0.0465073	0
26.36	-0.0446499	0
26.365	-0.0447942	0
26.37	-0.0449403	0
26.375	-0.045088	0
26.38	-0.0452374	0
26.385	-0.0443883	0
26.39	-0.0445408	0
26.395	-0.0436948	0
26.4	-0.0428502	0
26.405	-0.042007	0
26.41	-0.0411651	0
26.415	-0.0403245	0
26.42	-0.0394851	0
26.425	-0.038647	0
26.43	-0.0378099	0
26.435	-0.0379739	0
26.44	-0.037139	0
26.445	-0.0353051	0
26.45	-0.032472	0
26.455	-0.0306399	0
26.46	-0.0278086	0
26.465	-0.0229781	0
26.47	-0.0171483	0
26.475	-0.0113192	0
26.48	-0.00549075	0
26.485	-0.000662863	0
26.49	0.00416449	0
26.495	0.00899135	0
26.5	0.0138178	0
26.505	0.0166438	0
26.51	0.0194696	0
26.515	0.022295	0
26.52	0.0251202	0
26.525	0.0289452	0
26.53	0.0327701	0
26.535	0.0365949	0
26.54	0.0414196	0
26.545	0.0432444	0
26.55	0.0450693	0
26.555	0.0478942	0
26.56	0.0497194	0
26.565	0.0465447	0
26.57	0.0433703	0
26.575	0.0391963	0
26.58	0.0360226	0
26.585	0.0308493	0
26.59	0.0266764	0
26.595	0.0215041	0
26.6	0.0163324	0
26.605	0.0141613	0
26.61	0.0119908	0
26.615	0.00982107	0
26.62	0.00765209	0
26.625	0.00648393	0
26.63	0.00531664	0
26.635	0.00515026	0
26.64	0.00398484	0
26.645	0.00482044	0
26.65	0.00465711	0
26.655	0.0054949	0
26.66	0.00633385	0
26.665	0.00717401	0
26.67	0.00801544	0
26.675	0.00985819	0
26.68	0.0107023	0
26.685	0.0115478	0
26.69	0.0123948	0
26.695	0.0132433	0
26.7	0.0140934	0
26.705	0.0139451	0
26.71	0.0137984	0
26.715	0.0136535	0
26.72	0.0135103	0
26.725	0.013369	0
26.73	0.0132295	0
26.735	0.0130919	0
26.74	0.0129563	0
26.745	0.0138228	0
26.75	0.0146912	0
26.755	0.0155618	0
26.76	0.0164346	0
26.765	0.0163095	0
26.77	0.0151868	0
26.775	0.0150663	0
26.78	0.0139483	0
26.785	0.0128326	0
26.79	0.0107194	0
26.795	0.00960869	0
26.8	0.00850057	0
26.805	0.00739506	0
26.81	0.00729221	0
26.815	0.00619208	0
26.82	0.00609472	0
26.825	0.00600017	0
26.83	0.00690848	0
26.835	0.00681971	0
26.84	0.00673391	0
26.845	0.00665112	0
26.85	0.00557139	0
26.855	0.00549478	0
26.86	0.00542133	0
26.865	0.0043511	0
26.87	0.00328413	0
26.875	0.00322047	0
26.88	0.00216018	0
26.885	0.00110331	0
26.89	0.0010499	0
26.895	0	0
26.9	-0.00104634	0
26.905	-0.00208914	0
26.91	-0.0031284	0
26.915	-0.00416414	0
26.92	-0.00519638	0
26.925	-0.00422512	0
26.93	-0.0042504	0
26.935	-0.00327221	0
26.94	-0.00329058	0
26.945	-0.00330553	0
26.95	-0.00331706	0
26.955	-0.00432519	0
26.96	-0.00432993	0
26.965	-0.00633131	0
26.97	-0.00832934	0
26.975	-0.011324	0
26.98	-0.0133154	0
26.985	-0.0153034	0
26.99	-0.0172882	0
26.995	-0.0192697	0
27	-0.0212479	0
27.005	-0.0232229	0
27.01	-0.0251946	0
27.015	-0.0261632	0
27.02	-0.0281285	0
27.025	-0.0290906	0
27.03	-0.0300496	0
27.035	-0.0310054	0
27.04	-0.031958	0
27.045	-0.0329076	0
27.05	-0.033854	0
27.055	-0.0347973	0
27.06	-0.0357375	0
27.065	0.0183253	0
27.07	0.0733912	0
27.075	0.12746	0
27.08	0.182532	0
27.085	0.209607	0
27.09	0.235685	0
27.095	0.262766	1
27.1	0.28885	0
27.105	0.220936	0
27.11	0.153026	0
27.115	0.0841189	0
27.12	0.0162145	0
27.125	-0.0206871	0
27.13	-0.0565857	0
27.135	-0.0924815	0
27.14	-0.129375	0
27.145	-0.121265	0
27.15	-0.113152	0
27.155	-0.105037	0
27.16	-0.0969183	0
27.165	-0.0917973	0
27.17	-0.0866736	0
27.175	-0.0805471	0
27.18	-0.0754179	0
27.185	-0.0752859	0
27.19	-0.0751513	0
27.195	-0.0750141	0
27.2	-0.0748741	0
27.205	-0.0747315	0
27.21	-0.0745863	0
27.215	-0.0744385	0
27.22	-0.074288	0
27.225	-0.073135	0
27.23	-0.0719794	0
27.235	-0.0708213	0
27.24	-0.0706606	0
27.245	-0.0694974	0
27.25	-0.0693317	0
27.255	-0.0691635	0
27.26	-0.0689928	0
27.265	-0.0688196	0
27.27	-0.069644	0
27.275	-0.070466	0
27.28	-0.0712855	0
27.285	-0.0691027	0
27.29	-0.0669174	0
27.295	-0.0657298	0
27.3	-0.0635398	0
27.305	-0.0593475	0
27.31	-0.0531528	0
27.315	-0.0479558	0
27.32	-0.0427566	0
27.325	-0.037555	0
27.33	-0.0323512	0
27.335	-0.0271451	0
27.34	-0.0219368	0
27.345	-0.0187263	0
27.35	-0.0155135	0
27.355	-0.0122986	0
27.36	-0.00808145	0
27.365	-0.00486217	0
27.37	-0.000640745	0
27.375	0.00258282	0
27.38	0.0068085	0
27.385	0.00703628	0
27.39	0.00826615	0
27.395	0.00849809	0
27.4	0.00973209	0
27.405	0.00496814	0
27.41	0.00120621	0
27.415	-0.00255371	0
27.42	-0.00631163	0
27.425	-0.00906756	0
27.43	-0.0118215	0
27.435	-0.0155736	0
27.44	-0.0183236	0
27.445	-0.0200718	0
27.45	-0.020818	0
27.455	-0.0225624	0
27.46	-0.0233049	0
27.465	-0.0240455	0
27.47	-0.0247843	0
27.475	-0.0255212	0
27.48	-0.0252563	0
27.485	-0.0239897	0
27.49	-0.0227212	0
27.495	-0.021451	0
27.5	-0.019179	0
27.505	-0.0179053	0
27.51	-0.0156298	0
27.515	-0.0143526	0
27.52	-0.0120738	0
27.525	-0.0107932	0
27.53	-0.009511	0
27.535	-0.00822714	0
27.54	-0.00694164	0
27.545	-0.00665452	0
27.55	-0.0063658	0
27.555	-0.00607548	0
27.56	-0.00578359	0
27.565	-0.00549014	0
27.57	-0.00519514	0
27.575	-0.00389861	0
27.58	-0.00360057	0
27.585	-0.00230103	0
27.59	0	0
27.595	0.00130249	0
27.6	0.00260636	0
27.605	0.00391155	0
27.61	0.00621796	0
27.615	0.00752552	0
27.62	0.00983415	0
27.625	0.0141438	0
27.63	0.0184543	0
27.635	0.0227656	0
27.64	0.0270777	0
27.645	0.0273905	0
27.65	0.0287038	0
27.655	0.0290177	0
27.66	0.0293319	0
27.665	0.0256465	0
27.67	0.0209614	0
27.675	0.0172764	0
27.68	0.0135916	0
27.685	0.00990675	0
27.69	0.00622185	0
27.695	0.00253681	0
27.7	-0.00014845	0
27.705	-0.000834015	0
27.71	-0.00151996	0
27.715	-0.00120638	0
27.72	-0.00189333	0
27.725	0.000419081	0
27.73	0.00173079	0
27.735	0.00404171	0
27.74	0.00535177	0
27.745	0.00966088	0
27.75	0.014969	0
27.755	0.0192759	0
27.76	0.0245817	0
27.765	0.0878862	0
27.77	0.151189	0
27.775	0.215491	0
27.78	0.278791	0
27.785	0.29109	0
27.79	0.304387	1
27.795	0.316682	0
27.8	0.328975	0
27.805	0.253267	0
27.81	0.177556	0
27.815	0.100844	0
27.82	0.0251289	0
27.825	0.00141187	0
27.83	-0.0233075	0
27.835	-0.0470292	0
27.84	-0.0707534	0
27.845	-0.0614802	0
27.85	-0.0522097	0
27.855	-0.0429418	0
27.86	-0.0336767	0
27.865	-0.0304146	0
27.87	-0.0261554	0
27.875	-0.0218992	0
27.88	-0.0176462	0
27.885	-0.0193963	0
27.89	-0.0211498	0
27.895	-0.0239066	0
27.9	-0.0256669	0
27.905	-0.0294307	0
27.91	-0.0331981	0
27.915	-0.0379692	0
27.92	-0.041744	0
27.925	-0.0455227	0
27.93	-0.0493054	0
27.935	-0.053092	0
27.94	-0.0568828	0
27.945	-0.0606777	0
27.95	-0.0654769	0
27.955	-0.0692804	0
27.96	-0.0740883	0
27.965	-0.0779007	0
27.97	-0.0827177	0
27.975	-0.0865393	0
27.98	-0.0913657	0
27.985	-0.0921969	0
27.99	-0.093033	0
27.995	-0.0948741	0
28	-0.0957202	0
28.005	-0.0905715	0
28.01	-0.085428	0
28.015	-0.0802898	0
28.02	-0.076157	0
28.025	-0.0670296	0
28.03	-0.0579078	0
28.035	-0.0487916	0
28.04	-0.0396811	0
28.045	-0.0305764	0
28.05	-0.0224775	0
28.055	-0.0133846	0
28.06	-0.00429777	0
28.065	0.00378299	0
28.07	0.0118576	0
28.075	0.0199259	0
28.08	0.0279878	0
28.085	0.0320434	0
28.09	0.0360924	0
28.095	0.0401348	0
28.1	0.0441706	0
28.105	0.0441996	0
28.11	0.0432217	0
28.115	0.043237	0
28.12	0.0432453	0
28.125	0.0422464	0
28.13	0.0412405	0
28.135	0.0402273	0
28.14	0.0392068	0
28.145	0.0391789	0
28.15	0.0391435	0
28.155	0.0381005	0
28.16	0.0380499	0
28.165	0.0399916	0
28.17	0.0409255	0
28.175	0.0428515	0
28.18	0.0447696	0
28.185	0.0476796	0
28.19	0.0505815	0
28.195	0.0534752	0
28.2	0.0563606	0
28.205	0.0572376	0
28.21	0.0581062	0
28.215	0.0599663	0
28.22	0.0608177	0
28.225	0.0606605	0
28.23	0.0614945	0
28.235	0.0613197	0
28.24	0.0611359	0
28.245	0.0609431	0
28.25	0.0597413	0
28.255	0.0595302	0
28.26	0.05931	0
28.265	0.0570803	0
28.27	0.0558413	0
28.275	0.0545928	0
28.28	0.0533347	0
28.285	0.052067	0
28.29	0.0497895	0
28.295	0.0485022	0
28.3	0.047205	0
28.305	0.0448978	0
28.31	0.0425806	0
28.315	0.0402532	0
28.32	0.0389156	0
28.325	0.0355678	0
28.33	0.0332095	0
28.335	0.0308408	0
28.34	0.0284615	0
28.345	0.0250716	0
28.35	0.0216711	0
28.355	0.0192597	0
28.36	0.0158375	0
28.365	0.0134043	0
28.37	0.0109601	0
28.375	0.0085048	0
28.38	0.00703832	0
28.385	0.00456056	0
28.39	0.00307147	0
28.395	0.00157094	0
28.4	5.89102e-05	0
28.405	0.00053529	0
28.41	0	0
28.415	0.000453006	0
28.42	0.000894456	0
28.425	0.000324543	0
28.43	-0.000256542	0
28.435	-0.000848604	0
28.44	-0.000451451	0
28.445	-0.00406489	0
28.45	-0.00768873	0
28.455	-0.0113228	0
28.46	-0.0149668	0
28.465	-0.0206207	0
28.47	-0.0252842	0
28.475	-0.0309571	0
28.48	-0.0356393	0
28.485	-0.0403306	0
28.49	-0.0450306	0
28.495	-0.0487394	0
28.5	-0.0534566	0
28.505	-0.0551821	0
28.51	-0.0569157	0
28.515	-0.0586571	0
28.52	-0.0604063	0
28.525	-0.0601629	0
28.53	-0.0599269	0
28.535	-0.059698	0
28.54	-0.059476	0
28.545	-0.0602608	0
28.55	-0.0600521	0
28.555	-0.0608497	0
28.56	-0.0616535	0
28.565	-0.0524633	0
28.57	-0.0432788	0
28.575	-0.0340999	0
28.58	-0.0249264	0
28.585	0.0412419	0
28.59	0.108405	0
28.595	0.174564	0
28.6	0.241718	0
28.605	0.247867	0
28.61	0.255012	1
28.615	0.261154	0
28.62	0.268291	0
28.625	0.191425	0
28.63	0.115555	0
28.635	0.0386823	0
28.64	-0.0371937	0
28.645	-0.0570726	0
28.65	-0.0759542	0
28.655	-0.0958383	0
28.66	-0.115725	0
28.665	-0.103613	0
28.67	-0.0925034	0
28.675	-0.0803955	0
28.68	-0.0692891	0
28.685	-0.064184	0
28.69	-0.0590801	0
28.695	-0.0539771	0
28.7	-0.0488749	0
28.705	-0.0477732	0
28.71	-0.0466719	0
28.715	-0.0465708	0
28.72	-0.0454696	0
28.725	-0.0453682	0
28.73	-0.0452665	0
28.735	-0.0451641	0
28.74	-0.0440609	0
28.745	-0.0449567	0
28.75	-0.0448514	0
28.755	-0.0457447	0
28.76	-0.0456364	0
28.765	-0.0465264	0
28.77	-0.0474144	0
28.775	-0.0483003	0
28.78	-0.0491838	0
28.785	-0.0500649	0
28.79	-0.0509431	0
28.795	-0.0518185	0
28.8	-0.0526908	0
28.805	-0.0515598	0
28.81	-0.0504252	0
28.815	-0.049287	0
28.82	-0.0471449	0
28.825	-0.0439988	0
28.83	-0.0408483	0
28.835	-0.0376934	0
28.84	-0.0345339	0
28.845	-0.0313695	0
28.85	-0.0282001	0
28.855	-0.0250254	0
28.86	-0.0208454	0
28.865	-0.0166597	0
28.87	-0.0124682	0
28.875	-0.00727066	0
28.88	-0.00306696	0
28.885	0.00114312	0
28.89	0.00535979	0
28.895	0.00858324	0
28.9	0.0128136	0
28.905	0.0130512	0
28.91	0.0132961	0
28.915	0.0135486	0
28.92	0.0138088	0
28.925	0.011077	0
28.93	0.00835322	0
28.935	0.0056378	0
28.94	0.00293089	0
28.945	0.00123269	0
28.95	-0.00145662	0
28.955	-0.00313684	0
28.96	-0.00480778	0
28.965	-0.00646924	0
28.97	-0.00812103	0
28.975	-0.00876296	0
28.98	-0.0103948	0
28.985	-0.0100165	0
28.99	-0.0106277	0
28.995	-0.0102282	0
29	-0.0108179	0
29.005	-0.00939665	0
29.01	-0.00796415	0
29.015	-0.00752025	0
29.02	-0.00606475	0
29.025	-0.00459745	0
29.03	-0.00411817	0
29.035	-0.00262672	0
29.04	-0.00212289	0
29.045	-0.00160651	0
29.05	-0.00107736	0
29.055	-0.000535272	0
29.06	1.99604e-05	0
29.065	-0.000411472	0
29.07	0.000170622	0
29.075	-0.000233563	0
29.08	0.000376165	0
29.085	0	0
29.09	-0.000361917	0
29.095	0.000290354	0
29.1	-4.32994e-05	0
29.105	0.00163701	0
29.11	0.00433118	0
29.115	0.00603908	0
29.12	0.00876062	0
29.125	0.0104957	0
29.13	0.0122441	0
29.135	0.0150059	0
29.14	0.0167808	0
29.145	0.0135688	0
29.15	0.0103698	0
29.155	0.00618364	0
29.16	0.0030102	0
29.165	-0.00415061	0
29.17	-0.0102989	0
29.175	-0.0174348	0
29.18	-0.0235584	0
29.185	-0.0286698	0
29.19	-0.0337692	0
29.195	-0.0388566	0
29.2	-0.0429321	0
29.205	-0.044996	0
29.21	-0.0470482	0
29.215	-0.0490889	0
29.22	-0.0511181	0
29.225	-0.0551361	0
29.23	-0.059143	0
29.235	-0.0631387	0
29.24	-0.0671235	0
29.245	-0.0420975	0
29.25	-0.0160607	0
29.255	0.00998665	0
29.26	0.0360445	0
29.265	0.0931128	0
29.27	0.150191	0
29.275	0.20728	0
29.28	0.264379	0
29.285	0.235488	1
29.29	0.206606	0
29.295	0.177735	0
29.3	0.148873	0
29.305	0.08002	0
29.31	0.0121768	0
29.315	-0.0556571	0
29.32	-0.123482	0
29.325	-0.127298	0
29.33	-0.131104	0
29.335	-0.134902	0
29.34	-0.138691	0
29.345	-0.129472	0
29.35	-0.120244	0
29.355	-0.111008	0
29.36	-0.101763	0
29.365	-0.10051	0
29.37	-0.100249	0
29.375	-0.0989806	0
29.38	-0.0977041	0
29.385	-0.0994197	0
29.39	-0.100128	0
29.395	-0.101828	0
29.4	-0.102522	0
29.405	-0.103208	0
29.41	-0.102886	0
29.415	-0.102558	0
29.42	-0.102223	0
29.425	-0.102881	0
29.43	-0.102532	0
29.435	-0.103177	0
29.44	-0.103815	0
29.445	-0.106447	0
29.45	-0.109072	0
29.455	-0.111691	0
29.46	-0.114305	0
29.465	-0.114912	0
29.47	-0.114514	0
29.475	-0.115109	0
29.48	-0.1147	0
29.485	-0.112284	0
29.49	-0.109864	0
29.495	-0.106438	0
29.5	-0.104007	0
29.505	-0.100571	0
29.51	-0.0971298	0
29.515	-0.093684	0
29.52	-0.0892334	0
29.525	-0.0847783	0
29.53	-0.0793187	0
29.535	-0.0748547	0
29.54	-0.0693864	0
29.545	-0.064914	0
29.55	-0.0594376	0
29.555	-0.0539572	0
29.56	-0.048473	0
29.565	-0.0459851	0
29.57	-0.0424937	0
29.575	-0.0389987	0
29.58	-0.0355004	0
29.585	-0.0359988	0
29.59	-0.0354941	0
29.595	-0.0349863	0
29.6	-0.0344757	0
29.605	-0.0359622	0
29.61	-0.036446	0
29.615	-0.0379272	0
29.62	-0.0384059	0
29.625	-0.0388823	0
29.63	-0.0383565	0
29.635	-0.0388284	0
29.64	-0.0382984	0
29.645	-0.0377664	0
29.65	-0.0362327	0
29.655	-0.0356972	0
29.66	-0.0341602	0
29.665	-0.0316217	0
29.67	-0.0280818	0
29.675	-0.0255407	0
29.68	-0.0229984	0
29.685	-0.0194551	0
29.69	-0.0159109	0
29.695	-0.0133659	0
29.7	-0.00982019	0
29.705	-0.00727392	0
29.71	-0.00472717	0
29.715	-0.00218007	0
29.72	0.000367278	0
29.725	0.00191476	0
29.73	0.00346226	0
29.735	0.00500968	0
29.74	0.00655689	0
29.745	0.00810379	0
29.75	0.00865026	0
29.755	0.0101962	0
29.76	0.0117415	0
29.765	0.012286	0
29.77	0.0128297	0
29.775	0.0133724	0
29.78	0.014914	0
29.785	0.0144543	0
29.79	0.0149934	0
29.795	0.014531	0
29.8	0.0150671	0
29.805	0.0146016	0
29.81	0.0151343	0
29.815	0.0146651	0
29.82	0.0151939	0
29.825	0.0147206	0
29.83	0.0142452	0
29.835	0.0137674	0
29.84	0.0132871	0
29.845	0.0128044	0
29.85	0.0123189	0
29.855	0.0108307	0
29.86	0.0103396	0
29.865	0.0108456	0
29.87	0.0103484	0
29.875	0.010848	0
29.88	0.0103443	0
29.885	0.00983719	0
29.89	0.00932651	0
29.895	0.00881216	0
29.9	0.00829405	0
29.905	0.00777205	0
29.91	0.00624606	0
29.915	0.00571596	0
29.92	0.00518165	0
29.925	0.00364301	0
29.93	0.00209993	0
29.935	0.00155229	0
29.94	0	0
29.945	-0.000557045	0
29.95	-0.00111883	0
29.955	-0.00168533	0
29.96	-0.00125651	0
29.965	-0.000832337	0
29.97	-0.00041278	0
29.975	2.19125e-06	0
29.98	0.000412609	0
29.985	0.0018185	0
29.99	0.00321991	0
29.995	0.00461686	0
30	0.00600937	0
30.005	0.0043975	0
30.01	0.00378125	0
30.015	0.00316068	0
30.02	0.0025358	0
30.025	-9.3345e-05	0
30.03	-0.00172673	0
30.035	-0.00336432	0
30.04	-0.00500609	0
30.045	-0.005652	0
30.05	-0.00630203	0
30.055	-0.00695613	0
30.06	-0.00661429	0
30.065	-0.00827646	0
30.07	-0.00894262	0
30.075	-0.0106127	0
30.08	-0.0112868	0
30.085	-0.0149647	0
30.09	-0.0186465	0
30.095	-0.0223321	0
30.1	-0.0250215	0
30.105	0.0102853	0
30.11	0.0455884	0
30.115	0.0808878	0
30.12	0.116183	0
30.125	0.167476	0
30.13	0.219764	0
30.135	0.271049	0
30.14	0.32333	1
30.145	0.276608	0
30.15	0.230882	0
30.155	0.185153	0
30.16	0.139421	0
30.165	0.0776849	0
30.17	0.0159456	0
30.175	-0.045797	0
30.18	-0.106543	0
30.185	-0.101292	0
30.19	-0.0960444	0
30.195	-0.0918	0
30.2	-0.0865587	0
30.205	-0.0773206	0
30.21	-0.0690856	0
30.215	-0.0608536	0
30.22	-0.0516247	0
30.225	-0.0513988	0
30.23	-0.0501759	0
30.235	-0.0499559	0
30.24	-0.0487389	0
30.245	-0.0485247	0
30.25	-0.0483134	0
30.255	-0.0481049	0
30.26	-0.0478992	0
30.265	-0.0466962	0
30.27	-0.045496	0
30.275	-0.0442984	0
30.28	-0.0431036	0
30.285	-0.0429113	0
30.29	-0.0417217	0
30.295	-0.0415346	0
30.3	-0.0413501	0
30.305	-0.0411681	0
30.31	-0.0419885	0
30.315	-0.0418114	0
30.32	-0.0416367	0
30.325	-0.0394643	0
30.33	-0.0372944	0
30.335	-0.0351267	0
30.34	-0.0329613	0
30.345	-0.0277982	0
30.35	-0.0216373	0
30.355	-0.0164786	0
30.36	-0.011322	0
30.365	-0.0061676	0
30.37	-0.00101526	0
30.375	0.004135	0
30.38	0.00928324	0
30.385	0.0124295	0
30.39	0.0165737	0
30.395	0.0197161	0
30.4	0.0238565	0
30.405	0.025995	0
30.41	0.0291317	0
30.415	0.0312666	0
30.42	0.0343997	0
30.425	0.0345311	0
30.43	0.0356608	0
30.435	0.0367887	0
30.44	0.037915	0
30.445	0.0340397	0
30.45	0.0311628	0
30.455	0.0282843	0
30.46	0.0254043	0
30.465	0.0215228	0
30.47	0.0186399	0
30.475	0.0147555	0
30.48	0.0108697	0
30.485	0.00998254	0
30.49	0.00809404	0
30.495	0.00720423	0
30.5	0.00531314	0
30.505	0.00542081	0
30.51	0.00452727	0
30.515	0.00463254	0
30.52	0.00473667	0
30.525	0.00583967	0
30.53	0.00694159	0
30.535	0.00804246	0
30.54	0.0091423	0
30.545	0.0112411	0
30.55	0.012339	0
30.555	0.014436	0
30.56	0.015532	0
30.565	0.0166272	0
30.57	0.0167216	0
30.575	0.0178152	0
30.58	0.0189079	0
30.585	0.018	0
30.59	0.0170913	0
30.595	0.017182	0
30.6	0.016272	0
30.605	0.0153614	0
30.61	0.0144502	0
30.615	0.0125385	0
30.62	0.0116262	0
30.625	0.0107135	0
30.63	0.0108003	0
30.635	0.00988663	0
30.64	0.00897261	0
30.645	0.00805823	0
30.65	0.00714352	0
30.655	0.0062285	0
30.66	0.00531323	0
30.665	0.00439771	0
30.67	0.00248199	0
30.675	0.0015661	0
30.68	0.000650065	0
30.685	-0.000266079	0
30.69	-0.000182301	0
30.695	-0.00109857	0
30.7	-0.00101485	0
30.705	-0.00193112	0
30.71	-0.00184734	0
30.715	-0.00176349	0
30.72	-0.00167952	0
30.725	-0.00159541	0
30.73	-0.00151112	0
30.735	-0.00142663	0
30.74	-0.0013419	0
30.745	-0.00125691	0
30.75	-0.00117161	0
30.755	-8.59887e-05	0
30.76	0	0
30.765	8.63754e-05	0
30.77	0.00117313	0
30.775	0.00126025	0
30.78	0.00134773	0
30.785	0.00243554	0
30.79	0.00352367	0
30.795	0.00361211	0
30.8	0.00470085	0
30.805	0.00478987	0
30.81	0.00387916	0
30.815	0.00396869	0
30.82	0.00405847	0
30.825	0.00214847	0
30.83	0.000238678	0
30.835	-0.00167092	0
30.84	-0.00258033	0
30.845	-0.00448958	0
30.85	-0.00639867	0
30.855	-0.00830763	0
30.86	-0.00921646	0
30.865	-0.0111252	0
30.87	-0.0130338	0
30.875	-0.0149423	0
30.88	-0.0158508	0
30.885	-0.0167592	0
30.89	-0.0166676	0
30.895	-0.016576	0
30.9	-0.0164843	0
30.905	-0.0183927	0
30.91	-0.020301	0
30.915	-0.0222094	0
30.92	-0.0241179	0
30.925	0.0199736	0
30.93	0.0640651	0
30.935	0.108156	0
30.94	0.152248	0
30.945	0.194339	0
30.95	0.23643	0
30.955	0.278521	0
30.96	0.321611	1
30.965	0.265702	0
30.97	0.210792	0
30.975	0.154882	0
30.98	0.0999721	0
30.985	0.0480618	0
30.99	-0.00284882	0
30.995	-0.0527597	0
31	-0.103671	0
31.005	-0.0975821	0
31.01	-0.0914938	0
31.015	-0.0844059	0
31.02	-0.0783182	0
31.025	-0.0712309	0
31.03	-0.0641439	0
31.035	-0.0570573	0
31.04	-0.0499711	0
31.045	-0.0488853	0
31.05	-0.0487999	0
31.055	-0.048715	0
31.06	-0.0486305	0
31.065	-0.0485464	0
31.07	-0.0484628	0
31.075	-0.0483797	0
31.08	-0.0482971	0
31.085	-0.0462151	0
31.09	-0.0441335	0
31.095	-0.0410525	0
31.1	-0.038972	0
31.105	-0.0378922	0
31.11	-0.0368129	0
31.115	-0.0357342	0
31.12	-0.0346561	0
31.125	-0.0355786	0
31.13	-0.0355018	0
31.135	-0.0354256	0
31.14	-0.0353501	0
31.145	-0.0322753	0
31.15	-0.0292012	0
31.155	-0.0261278	0
31.16	-0.0230552	0
31.165	-0.0189832	0
31.17	-0.0139121	0
31.175	-0.00884168	0
31.18	-0.00377206	0
31.185	0.000296756	0
31.19	0.00436476	0
31.195	0.00843194	0
31.2	0.0124983	0
31.205	0.0155638	0
31.21	0.0196284	0
31.215	0.0226921	0
31.22	0.0267549	0
31.225	0.0298169	0
31.23	0.0338779	0
31.235	0.0379379	0
31.24	0.041997	0
31.245	0.0430551	0
31.25	0.0441123	0
31.255	0.0461684	0
31.26	0.0472236	0
31.265	0.0432777	0
31.27	0.0403308	0
31.275	0.0363828	0
31.28	0.0334338	0
31.285	0.0294836	0
31.29	0.0265324	0
31.295	0.0225801	0
31.3	0.0196266	0
31.305	0.018672	0
31.31	0.0187163	0
31.315	0.0177594	0
31.32	0.0178013	0
31.325	0.016842	0
31.33	0.0168815	0
31.335	0.0169197	0
31.34	0.0169568	0
31.345	0.0179925	0
31.35	0.0190271	0
31.355	0.0200603	0
31.36	0.0210922	0
31.365	0.0221229	0
31.37	0.0241522	0
31.375	0.0251801	0
31.38	0.0272068	0
31.385	0.028232	0
31.39	0.0282559	0
31.395	0.0292784	0
31.4	0.0302994	0
31.405	0.0293191	0
31.41	0.0293373	0
31.415	0.029354	0
31.42	0.0293693	0
31.425	0.0283831	0
31.43	0.0283955	0
31.435	0.0274063	0
31.44	0.0274155	0
31.445	0.0254233	0
31.45	0.0244295	0
31.455	0.0224341	0
31.46	0.0214372	0
31.465	0.0194387	0
31.47	0.0174385	0
31.475	0.0154368	0
31.48	0.0134334	0
31.485	0.0124283	0
31.49	0.0114216	0
31.495	0.0104132	0
31.5	0.0104031	0
31.505	0.00939132	0
31.51	0.00937781	0
31.515	0.00936256	0
31.52	0.00934557	0
31.525	0.00932681	0
31.53	0.00930627	0
31.535	0.00828394	0
31.54	0.00825981	0
31.545	0.00723385	0
31.55	0.00720606	0
31.555	0.00617642	0
31.56	0.00614492	0
31.565	0.00411154	0
31.57	0.00307627	0
31.575	0.00103909	0
31.58	0	0
31.585	-4.10218e-05	0
31.59	-8.39499e-05	0
31.595	-0.00112876	0
31.6	-0.00117541	0
31.605	-0.000223896	0
31.61	0.000725826	0
31.615	0.00167378	0
31.62	0.00261999	0
31.625	0.00256449	0
31.63	0.00350731	0
31.635	0.00444846	0
31.64	0.00538799	0
31.645	0.00432591	0
31.65	0.00326225	0
31.655	0.00219705	0
31.66	0.00113033	0
31.665	-0.000937889	0
31.67	-0.00300757	0
31.675	-0.00407869	0
31.68	-0.00615122	0
31.685	-0.00722513	0
31.69	-0.0083004	0
31.695	-0.010377	0
31.7	-0.0114549	0
31.705	-0.0125341	0
31.71	-0.0126145	0
31.715	-0.0136961	0
31.72	-0.0137789	0
31.725	-0.0168629	0
31.73	-0.019948	0
31.735	-0.0230343	0
31.74	-0.0261216	0
31.745	0.00979009	0
31.75	0.0457007	0
31.755	0.0816103	0
31.76	0.118519	0
31.765	0.172427	0
31.77	0.227333	0
31.775	0.282239	0
31.78	0.337144	1
31.785	0.293049	0
31.79	0.249952	0
31.795	0.205855	0
31.8	0.161757	0
31.805	0.0966578	0
31.81	0.0315582	0
31.815	-0.033542	0
31.82	-0.0976428	0
31.825	-0.0957443	0
31.83	-0.0948463	0
31.835	-0.0929489	0
31.84	-0.092052	0
31.845	-0.0831556	0
31.85	-0.0742597	0
31.855	-0.0653642	0
31.86	-0.0564692	0
31.865	-0.0555745	0
31.87	-0.0556802	0
31.875	-0.0547863	0
31.88	-0.0548926	0
31.885	-0.0559993	0
31.89	-0.0571062	0
31.895	-0.0572133	0
31.9	-0.0583206	0
31.905	-0.0574281	0
31.91	-0.0565357	0
31.915	-0.0556434	0
31.92	-0.0557513	0
31.925	-0.0548591	0
31.93	-0.0539671	0
31.935	-0.053075	0
31.94	-0.0521829	0
31.945	-0.0522908	0
31.95	-0.0523985	0
31.955	-0.0525062	0
31.96	-0.0526137	0
31.965	-0.0517211	0
31.97	-0.0508283	0
31.975	-0.0509353	0
31.98	-0.049042	0
31.985	-0.0451485	0
31.99	-0.0412547	0
31.995	-0.0373605	0
32	-0.032466	0
32.005	-0.0285711	0
