0.0000	2044.000000	0
0.0010	2044.000000	0
0.0020	2044.000000	0
0.0030	2044.000000	0
0.0040	2044.000000	0
0.0050	2046.000000	0
0.0060	2051.000000	0
0.0070	2055.000000	0
0.0080	2061.000000	0
0.0090	2063.000000	0
0.0100	2065.000000	0
0.0110	2067.000000	0
0.0120	2068.000000	0
0.0130	2067.000000	0
0.0140	2067.000000	0
0.0150	2064.000000	0
0.0160	2060.000000	0
0.0170	2055.000000	0
0.0180	2052.000000	0
0.0190	2048.000000	0
0.0200	2045.000000	0
0.0210	2045.000000	0
0.0220	2044.000000	0
0.0230	2043.000000	0
0.0240	2044.000000	0
0.0250	2048.000000	0
0.0260	2053.000000	0
0.0270	2058.000000	0
0.0280	2062.000000	0
0.0290	2063.000000	0
0.0300	2065.000000	0
0.0310	2066.000000	0
0.0320	2068.000000	0
0.0330	2067.000000	0
0.0340	2065.000000	0
0.0350	2063.000000	0
0.0360	2059.000000	0
0.0370	2055.000000	0
0.0380	2052.000000	0
0.0390	2048.000000	0
0.0400	2048.000000	0
0.0410	2048.000000	0
0.0420	2046.000000	0
0.0430	2047.000000	0
0.0440	2048.000000	0
0.0450	2049.000000	0
0.0460	2053.000000	0
0.0470	2059.000000	0
0.0480	2063.000000	0
0.0490	2064.000000	0
0.0500	2067.000000	0
0.0510	2069.000000	0
0.0520	2070.000000	0
0.0530	2069.000000	0
0.0540	2065.000000	0
0.0550	2063.000000	0
0.0560	2060.000000	0
0.0570	2057.000000	0
0.0580	2053.000000	0
0.0590	2049.000000	0
0.0600	2046.000000	0
0.0610	2046.000000	0
0.0620	2045.000000	0
0.0630	2045.000000	0
0.0640	2045.000000	0
0.0650	2046.000000	0
0.0660	2052.000000	0
0.0670	2056.000000	0
0.0680	2060.000000	0
0.0690	2061.000000	0
0.0700	2063.000000	0
0.0710	2066.000000	0
0.0720	2067.000000	0
0.0730	2066.000000	0
0.0740	2063.000000	0
0.0750	2059.000000	0
0.0760	2054.000000	0
0.0770	2052.000000	0
0.0780	2049.000000	0
0.0790	2045.000000	0
0.0800	2043.000000	0
0.0810	2041.000000	0
0.0820	2040.000000	0
0.0830	2041.000000	0
0.0840	2041.000000	0
0.0850	2043.000000	0
0.0860	2048.000000	0
0.0870	2053.000000	0
0.0880	2058.000000	0
0.0890	2060.000000	0
0.0900	2063.000000	0
0.0910	2064.000000	0
0.0920	2066.000000	0
0.0930	2065.000000	0
0.0940	2064.000000	0
0.0950	2060.000000	0
0.0960	2057.000000	0
0.0970	2053.000000	0
0.0980	2051.000000	0
0.0990	2048.000000	0
0.1000	2046.000000	0
0.1010	2046.000000	0
0.1020	2047.000000	0
0.1030	2048.000000	0
0.1040	2049.000000	0
0.1050	2051.000000	0
0.1060	2056.000000	0
0.1070	2063.000000	0
0.1080	2067.000000	0
0.1090	2068.000000	0
0.1100	2071.000000	0
0.1110	2072.000000	0
0.1120	2073.000000	0
0.1130	2075.000000	0
0.1140	2073.000000	0
0.1150	2070.000000	0
0.1160	2068.000000	0
0.1170	2063.000000	0
0.1180	2061.000000	0
0.1190	2056.000000	0
0.1200	2054.000000	0
0.1210	2054.000000	0
0.1220	2052.000000	0
0.1230	2052.000000	0
0.1240	2052.000000	0
0.1250	2054.000000	0
0.1260	2058.000000	0
0.1270	2064.000000	0
0.1280	2068.000000	0
0.1290	2071.000000	0
0.1300	2072.000000	0
0.1310	2072.000000	0
0.1320	2073.000000	0
0.1330	2072.000000	0
0.1340	2069.000000	0
0.1350	2065.000000	0
0.1360	2061.000000	0
0.1370	2058.000000	0
0.1380	2054.000000	0
0.1390	2049.000000	0
0.1400	2048.000000	0
0.1410	2046.000000	0
0.1420	2046.000000	0
0.1430	2045.000000	0
0.1440	2045.000000	0
0.1450	2046.000000	0
0.1460	2050.000000	0
0.1470	2053.000000	0
0.1480	2057.000000	0
0.1490	2060.000000	0
0.1500	2061.000000	0
0.1510	2063.000000	0
0.1520	2065.000000	0
0.1530	2065.000000	0
0.1540	2063.000000	0
0.1550	2060.000000	0
0.1560	2057.000000	0
0.1570	2051.000000	0
0.1580	2046.000000	0
0.1590	2044.000000	0
0.1600	2043.000000	0
0.1610	2042.000000	0
0.1620	2042.000000	0
0.1630	2041.000000	0
0.1640	2041.000000	0
0.1650	2043.000000	0
0.1660	2046.000000	0
0.1670	2051.000000	0
0.1680	2056.000000	0
0.1690	2060.000000	0
0.1700	2062.000000	0
0.1710	2064.000000	0
0.1720	2065.000000	0
0.1730	2065.000000	0
0.1740	2063.000000	0
0.1750	2061.000000	0
0.1760	2058.000000	0
0.1770	2055.000000	0
0.1780	2051.000000	0
0.1790	2046.000000	0
0.1800	2043.000000	0
0.1810	2043.000000	0
0.1820	2041.000000	0
0.1830	2041.000000	0
0.1840	2041.000000	0
0.1850	2044.000000	0
0.1860	2049.000000	0
0.1870	2053.000000	0
0.1880	2058.000000	0
0.1890	2060.000000	0
0.1900	2062.000000	0
0.1910	2063.000000	0
0.1920	2064.000000	0
0.1930	2063.000000	0
0.1940	2059.000000	0
0.1950	2057.000000	0
0.1960	2057.000000	0
0.1970	2052.000000	0
0.1980	2050.000000	0
0.1990	2045.000000	0
0.2000	2042.000000	0
0.2010	2042.000000	0
0.2020	2040.000000	0
0.2030	2041.000000	0
0.2040	2041.000000	0
0.2050	2042.000000	0
0.2060	2046.000000	0
0.2070	2052.000000	0
0.2080	2056.000000	0
0.2090	2059.000000	0
0.2100	2060.000000	0
0.2110	2064.000000	0
0.2120	2066.000000	0
0.2130	2066.000000	0
0.2140	2064.000000	0
0.2150	2061.000000	0
0.2160	2058.000000	0
0.2170	2052.000000	0
0.2180	2049.000000	0
0.2190	2045.000000	0
0.2200	2043.000000	0
0.2210	2043.000000	0
0.2220	2042.000000	0
0.2230	2041.000000	0
0.2240	2041.000000	0
0.2250	2042.000000	0
0.2260	2047.000000	0
0.2270	2052.000000	0
0.2280	2056.000000	0
0.2290	2059.000000	0
0.2300	2060.000000	0
0.2310	2063.000000	0
0.2320	2063.000000	0
0.2330	2063.000000	0
0.2340	2061.000000	0
0.2350	2058.000000	0
0.2360	2054.000000	0
0.2370	2049.000000	0
0.2380	2044.000000	0
0.2390	2040.000000	0
0.2400	2037.000000	0
0.2410	2034.000000	0
0.2420	2030.000000	0
0.2430	2026.000000	0
0.2440	2022.000000	0
0.2450	2019.000000	0
0.2460	2019.000000	0
0.2470	2018.000000	0
0.2480	2020.000000	0
0.2490	2020.000000	0
0.2500	2020.000000	0
0.2510	2023.000000	0
0.2520	2024.000000	0
0.2530	2025.000000	0
0.2540	2026.000000	0
0.2550	2026.000000	0
0.2560	2027.000000	0
0.2570	2028.000000	0
0.2580	2028.000000	0
0.2590	2029.000000	0
0.2600	2029.000000	0
0.2610	2032.000000	0
0.2620	2035.000000	0
0.2630	2039.000000	0
0.2640	2048.000000	0
0.2650	2060.000000	0
0.2660	2080.000000	0
0.2670	2107.000000	0
0.2680	2140.000000	0
0.2690	2174.000000	0
0.2700	2210.000000	0
0.2710	2246.000000	0
0.2720	2280.000000	0
0.2730	2311.000000	0
0.2740	2335.000000	0
0.2750	2355.000000	0
0.2760	2373.000000	0
0.2770	2385.000000	0
0.2780	2395.000000	0
0.2790	2402.000000	0
0.2800	2409.000000	0
0.2810	2419.000000	0
0.2820	2426.000000	0
0.2830	2434.000000	1
0.2840	2439.000000	0
0.2850	2443.000000	0
0.2860	2446.000000	0
0.2870	2443.000000	0
0.2880	2435.000000	0
0.2890	2421.000000	0
0.2900	2400.000000	0
0.2910	2375.000000	0
0.2920	2342.000000	0
0.2930	2305.000000	0
0.2940	2264.000000	0
0.2950	2221.000000	0
0.2960	2183.000000	0
0.2970	2146.000000	0
0.2980	2117.000000	0
0.2990	2095.000000	0
0.3000	2080.000000	0
0.3010	2071.000000	0
0.3020	2066.000000	0
0.3030	2060.000000	0
0.3040	2057.000000	0
0.3050	2053.000000	0
0.3060	2055.000000	0
0.3070	2056.000000	0
0.3080	2058.000000	0
0.3090	2058.000000	0
0.3100	2058.000000	0
0.3110	2059.000000	0
0.3120	2057.000000	0
0.3130	2056.000000	0
0.3140	2052.000000	0
0.3150	2045.000000	0
0.3160	2043.000000	0
0.3170	2036.000000	0
0.3180	2030.000000	0
0.3190	2025.000000	0
0.3200	2021.000000	0
0.3210	2020.000000	0
0.3220	2015.000000	0
0.3230	2015.000000	0
0.3240	2013.000000	0
0.3250	2015.000000	0
0.3260	2019.000000	0
0.3270	2023.000000	0
0.3280	2026.000000	0
0.3290	2028.000000	0
0.3300	2030.000000	0
0.3310	2031.000000	0
0.3320	2032.000000	0
0.3330	2032.000000	0
0.3340	2029.000000	0
0.3350	2027.000000	0
0.3360	2024.000000	0
0.3370	2020.000000	0
0.3380	2015.000000	0
0.3390	2010.000000	0
0.3400	2006.000000	0
0.3410	2007.000000	0
0.3420	2008.000000	0
0.3430	2007.000000	0
0.3440	2007.000000	0
0.3450	2009.000000	0
0.3460	2012.000000	0
0.3470	2018.000000	0
0.3480	2020.000000	0
0.3490	2022.000000	0
0.3500	2025.000000	0
0.3510	2029.000000	0
0.3520	2029.000000	0
0.3530	2031.000000	0
0.3540	2029.000000	0
0.3550	2026.000000	0
0.3560	2024.000000	0
0.3570	2021.000000	0
0.3580	2017.000000	0
0.3590	2014.000000	0
0.3600	2011.000000	0
0.3610	2014.000000	0
0.3620	2012.000000	0
0.3630	2012.000000	0
0.3640	2012.000000	0
0.3650	2013.000000	0
0.3660	2018.000000	0
0.3670	2022.000000	0
0.3680	2027.000000	0
0.3690	2031.000000	0
0.3700	2031.000000	0
0.3710	2035.000000	0
0.3720	2038.000000	0
0.3730	2039.000000	0
0.3740	2037.000000	0
0.3750	2033.000000	0
0.3760	2030.000000	0
0.3770	2027.000000	0
0.3780	2023.000000	0
0.3790	2019.000000	0
0.3800	2017.000000	0
0.3810	2018.000000	0
0.3820	2016.000000	0
0.3830	2016.000000	0
0.3840	2016.000000	0
0.3850	2018.000000	0
0.3860	2022.000000	0
0.3870	2026.000000	0
0.3880	2030.000000	0
0.3890	2033.000000	0
0.3900	2035.000000	0
0.3910	2038.000000	0
0.3920	2039.000000	0
0.3930	2040.000000	0
0.3940	2040.000000	0
0.3950	2037.000000	0
0.3960	2035.000000	0
0.3970	2033.000000	0
0.3980	2030.000000	0
0.3990	2025.000000	0
0.4000	2025.000000	0
0.4010	2024.000000	0
0.4020	2023.000000	0
0.4030	2022.000000	0
0.4040	2023.000000	0
0.4050	2025.000000	0
0.4060	2030.000000	0
0.4070	2035.000000	0
0.4080	2040.000000	0
0.4090	2042.000000	0
0.4100	2043.000000	0
0.4110	2044.000000	0
0.4120	2048.000000	0
0.4130	2047.000000	0
0.4140	2046.000000	0
0.4150	2044.000000	0
0.4160	2043.000000	0
0.4170	2038.000000	0
0.4180	2035.000000	0
0.4190	2033.000000	0
0.4200	2033.000000	0
0.4210	2032.000000	0
0.4220	2032.000000	0
0.4230	2031.000000	0
0.4240	2032.000000	0
0.4250	2034.000000	0
0.4260	2040.000000	0
0.4270	2045.000000	0
0.4280	2050.000000	0
0.4290	2053.000000	0
0.4300	2056.000000	0
0.4310	2061.000000	0
0.4320	2060.000000	0
0.4330	2063.000000	0
0.4340	2062.000000	0
0.4350	2061.000000	0
0.4360	2060.000000	0
0.4370	2055.000000	0
0.4380	2050.000000	0
0.4390	2047.000000	0
0.4400	2045.000000	0
0.4410	2046.000000	0
0.4420	2045.000000	0
0.4430	2046.000000	0
0.4440	2045.000000	0
0.4450	2048.000000	0
0.4460	2053.000000	0
0.4470	2057.000000	0
0.4480	2061.000000	0
0.4490	2064.000000	0
0.4500	2067.000000	0
0.4510	2070.000000	0
0.4520	2071.000000	0
0.4530	2071.000000	0
0.4540	2070.000000	0
0.4550	2069.000000	0
0.4560	2067.000000	0
0.4570	2064.000000	0
0.4580	2060.000000	0
0.4590	2056.000000	0
0.4600	2056.000000	0
0.4610	2057.000000	0
0.4620	2055.000000	0
0.4630	2055.000000	0
0.4640	2054.000000	0
0.4650	2056.000000	0
0.4660	2062.000000	0
0.4670	2067.000000	0
0.4680	2072.000000	0
0.4690	2076.000000	0
0.4700	2078.000000	0
0.4710	2080.000000	0
0.4720	2083.000000	0
0.4730	2084.000000	0
0.4740	2083.000000	0
0.4750	2082.000000	0
0.4760	2080.000000	0
0.4770	2077.000000	0
0.4780	2073.000000	0
0.4790	2071.000000	0
0.4800	2070.000000	0
0.4810	2070.000000	0
0.4820	2070.000000	0
0.4830	2070.000000	0
0.4840	2070.000000	0
0.4850	2072.000000	0
0.4860	2079.000000	0
0.4870	2084.000000	0
0.4880	2089.000000	0
0.4890	2093.000000	0
0.4900	2096.000000	0
0.4910	2097.000000	0
0.4920	2100.000000	0
0.4930	2102.000000	0
0.4940	2100.000000	0
0.4950	2098.000000	0
0.4960	2095.000000	0
0.4970	2093.000000	0
0.4980	2089.000000	0
0.4990	2087.000000	0
0.5000	2085.000000	0
0.5010	2084.000000	0
0.5020	2085.000000	0
0.5030	2086.000000	0
0.5040	2086.000000	0
0.5050	2088.000000	0
0.5060	2093.000000	0
0.5070	2100.000000	0
0.5080	2104.000000	0
0.5090	2107.000000	0
0.5100	2109.000000	0
0.5110	2110.000000	0
0.5120	2113.000000	0
0.5130	2114.000000	0
0.5140	2113.000000	0
0.5150	2110.000000	0
0.5160	2110.000000	0
0.5170	2105.000000	0
0.5180	2102.000000	0
0.5190	2098.000000	0
0.5200	2097.000000	0
0.5210	2097.000000	0
0.5220	2096.000000	0
0.5230	2095.000000	0
0.5240	2094.000000	0
0.5250	2096.000000	0
0.5260	2101.000000	0
0.5270	2105.000000	0
0.5280	2110.000000	0
0.5290	2113.000000	0
0.5300	2115.000000	0
0.5310	2117.000000	0
0.5320	2119.000000	0
0.5330	2119.000000	0
0.5340	2117.000000	0
0.5350	2114.000000	0
0.5360	2113.000000	0
0.5370	2107.000000	0
0.5380	2103.000000	0
0.5390	2099.000000	0
0.5400	2097.000000	0
0.5410	2097.000000	0
0.5420	2096.000000	0
0.5430	2096.000000	0
0.5440	2094.000000	0
0.5450	2096.000000	0
0.5460	2099.000000	0
0.5470	2103.000000	0
0.5480	2105.000000	0
0.5490	2107.000000	0
0.5500	2107.000000	0
0.5510	2108.000000	0
0.5520	2107.000000	0
0.5530	2106.000000	0
0.5540	2102.000000	0
0.5550	2097.000000	0
0.5560	2094.000000	0
0.5570	2088.000000	0
0.5580	2082.000000	0
0.5590	2076.000000	0
0.5600	2072.000000	0
0.5610	2069.000000	0
0.5620	2065.000000	0
0.5630	2062.000000	0
0.5640	2060.000000	0
0.5650	2060.000000	0
0.5660	2062.000000	0
0.5670	2064.000000	0
0.5680	2067.000000	0
0.5690	2067.000000	0
0.5700	2067.000000	0
0.5710	2069.000000	0
0.5720	2068.000000	0
0.5730	2065.000000	0
0.5740	2062.000000	0
0.5750	2057.000000	0
0.5760	2053.000000	0
0.5770	2045.000000	0
0.5780	2041.000000	0
0.5790	2035.000000	0
0.5800	2032.000000	0
0.5810	2030.000000	0
0.5820	2025.000000	0
0.5830	2023.000000	0
0.5840	2021.000000	0
0.5850	2022.000000	0
0.5860	2025.000000	0
0.5870	2028.000000	0
0.5880	2029.000000	0
0.5890	2030.000000	0
0.5900	2031.000000	0
0.5910	2030.000000	0
0.5920	2032.000000	0
0.5930	2031.000000	0
0.5940	2027.000000	0
0.5950	2024.000000	0
0.5960	2021.000000	0
0.5970	2015.000000	0
0.5980	2010.000000	0
0.5990	2005.000000	0
0.6000	2003.000000	0
0.6010	2002.000000	0
0.6020	2000.000000	0
0.6030	1998.000000	0
0.6040	1997.000000	0
0.6050	1997.000000	0
0.6060	2001.000000	0
0.6070	2004.000000	0
0.6080	2008.000000	0
0.6090	2011.000000	0
0.6100	2012.000000	0
0.6110	2013.000000	0
0.6120	2015.000000	0
0.6130	2016.000000	0
0.6140	2014.000000	0
0.6150	2012.000000	0
0.6160	2009.000000	0
0.6170	2004.000000	0
0.6180	1999.000000	0
0.6190	1995.000000	0
0.6200	1992.000000	0
0.6210	1993.000000	0
0.6220	1991.000000	0
0.6230	1989.000000	0
0.6240	1989.000000	0
0.6250	1992.000000	0
0.6260	1997.000000	0
0.6270	2002.000000	0
0.6280	2007.000000	0
0.6290	2010.000000	0
0.6300	2012.000000	0
0.6310	2012.000000	0
0.6320	2014.000000	0
0.6330	2016.000000	0
0.6340	2015.000000	0
0.6350	2012.000000	0
0.6360	2011.000000	0
0.6370	2006.000000	0
0.6380	2001.000000	0
0.6390	1997.000000	0
0.6400	1995.000000	0
0.6410	1996.000000	0
0.6420	1995.000000	0
0.6430	1994.000000	0
0.6440	1995.000000	0
0.6450	1997.000000	0
0.6460	2002.000000	0
0.6470	2006.000000	0
0.6480	2010.000000	0
0.6490	2013.000000	0
0.6500	2016.000000	0
0.6510	2019.000000	0
0.6520	2022.000000	0
0.6530	2021.000000	0
0.6540	2019.000000	0
0.6550	2017.000000	0
0.6560	2015.000000	0
0.6570	2011.000000	0
0.6580	2007.000000	0
0.6590	2003.000000	0
0.6600	2003.000000	0
0.6610	2003.000000	0
0.6620	2001.000000	0
0.6630	1999.000000	0
0.6640	1999.000000	0
0.6650	2002.000000	0
0.6660	2007.000000	0
0.6670	2011.000000	0
0.6680	2015.000000	0
0.6690	2017.000000	0
0.6700	2021.000000	0
0.6710	2022.000000	0
0.6720	2025.000000	0
0.6730	2025.000000	0
0.6740	2024.000000	0
0.6750	2022.000000	0
0.6760	2019.000000	0
0.6770	2015.000000	0
0.6780	2011.000000	0
0.6790	2008.000000	0
0.6800	2007.000000	0
0.6810	2006.000000	0
0.6820	2003.000000	0
0.6830	2003.000000	0
0.6840	2002.000000	0
0.6850	2007.000000	0
0.6860	2010.000000	0
0.6870	2017.000000	0
0.6880	2021.000000	0
0.6890	2023.000000	0
0.6900	2027.000000	0
0.6910	2030.000000	0
0.6920	2032.000000	0
0.6930	2032.000000	0
0.6940	2031.000000	0
0.6950	2028.000000	0
0.6960	2025.000000	0
0.6970	2021.000000	0
0.6980	2017.000000	0
0.6990	2013.000000	0
0.7000	2012.000000	0
0.7010	2011.000000	0
0.7020	2010.000000	0
0.7030	2009.000000	0
0.7040	2008.000000	0
0.7050	2012.000000	0
0.7060	2015.000000	0
0.7070	2020.000000	0
0.7080	2024.000000	0
0.7090	2027.000000	0
0.7100	2030.000000	0
0.7110	2032.000000	0
0.7120	2033.000000	0
0.7130	2033.000000	0
0.7140	2032.000000	0
0.7150	2030.000000	0
0.7160	2028.000000	0
0.7170	2023.000000	0
0.7180	2019.000000	0
0.7190	2015.000000	0
0.7200	2015.000000	0
0.7210	2014.000000	0
0.7220	2013.000000	0
0.7230	2010.000000	0
0.7240	2010.000000	0
0.7250	2013.000000	0
0.7260	2018.000000	0
0.7270	2023.000000	0
0.7280	2027.000000	0
0.7290	2031.000000	0
0.7300	2033.000000	0
0.7310	2034.000000	0
0.7320	2037.000000	0
0.7330	2038.000000	0
0.7340	2037.000000	0
0.7350	2034.000000	0
0.7360	2032.000000	0
0.7370	2027.000000	0
0.7380	2023.000000	0
0.7390	2018.000000	0
0.7400	2016.000000	0
0.7410	2015.000000	0
0.7420	2014.000000	0
0.7430	2013.000000	0
0.7440	2013.000000	0
0.7450	2016.000000	0
0.7460	2019.000000	0
0.7470	2024.000000	0
0.7480	2029.000000	0
0.7490	2031.000000	0
0.7500	2035.000000	0
0.7510	2037.000000	0
0.7520	2038.000000	0
0.7530	2038.000000	0
0.7540	2036.000000	0
0.7550	2035.000000	0
0.7560	2031.000000	0
0.7570	2027.000000	0
0.7580	2023.000000	0
0.7590	2019.000000	0
0.7600	2017.000000	0
0.7610	2016.000000	0
0.7620	2014.000000	0
0.7630	2012.000000	0
0.7640	2013.000000	0
0.7650	2017.000000	0
0.7660	2020.000000	0
0.7670	2025.000000	0
0.7680	2029.000000	0
0.7690	2032.000000	0
0.7700	2035.000000	0
0.7710	2036.000000	0
0.7720	2039.000000	0
0.7730	2038.000000	0
0.7740	2037.000000	0
0.7750	2034.000000	0
0.7760	2031.000000	0
0.7770	2028.000000	0
0.7780	2023.000000	0
0.7790	2019.000000	0
0.7800	2018.000000	0
0.7810	2017.000000	0
0.7820	2016.000000	0
0.7830	2015.000000	0
0.7840	2015.000000	0
0.7850	2018.000000	0
0.7860	2021.000000	0
0.7870	2028.000000	0
0.7880	2031.000000	0
0.7890	2033.000000	0
0.7900	2035.000000	0
0.7910	2037.000000	0
0.7920	2038.000000	0
0.7930	2037.000000	0
0.7940	2038.000000	0
0.7950	2036.000000	0
0.7960	2033.000000	0
0.7970	2030.000000	0
0.7980	2025.000000	0
0.7990	2021.000000	0
0.8000	2019.000000	0
0.8010	2017.000000	0
0.8020	2017.000000	0
0.8030	2016.000000	0
0.8040	2016.000000	0
0.8050	2017.000000	0
0.8060	2022.000000	0
0.8070	2027.000000	0
0.8080	2030.000000	0
0.8090	2033.000000	0
0.8100	2036.000000	0
0.8110	2037.000000	0
0.8120	2039.000000	0
0.8130	2039.000000	0
0.8140	2038.000000	0
0.8150	2035.000000	0
0.8160	2032.000000	0
0.8170	2030.000000	0
0.8180	2025.000000	0
0.8190	2023.000000	0
0.8200	2021.000000	0
0.8210	2020.000000	0
0.8220	2019.000000	0
0.8230	2018.000000	0
0.8240	2018.000000	0
0.8250	2020.000000	0
0.8260	2025.000000	0
0.8270	2030.000000	0
0.8280	2033.000000	0
0.8290	2036.000000	0
0.8300	2038.000000	0
0.8310	2041.000000	0
0.8320	2041.000000	0
0.8330	2040.000000	0
0.8340	2040.000000	0
0.8350	2039.000000	0
0.8360	2037.000000	0
0.8370	2033.000000	0
0.8380	2029.000000	0
0.8390	2025.000000	0
0.8400	2023.000000	0
0.8410	2023.000000	0
0.8420	2021.000000	0
0.8430	2019.000000	0
0.8440	2019.000000	0
0.8450	2022.000000	0
0.8460	2027.000000	0
0.8470	2032.000000	0
0.8480	2036.000000	0
0.8490	2039.000000	0
0.8500	2041.000000	0
0.8510	2044.000000	0
0.8520	2046.000000	0
0.8530	2046.000000	0
0.8540	2046.000000	0
0.8550	2043.000000	0
0.8560	2041.000000	0
0.8570	2036.000000	0
0.8580	2032.000000	0
0.8590	2030.000000	0
0.8600	2028.000000	0
0.8610	2027.000000	0
0.8620	2025.000000	0
0.8630	2024.000000	0
0.8640	2024.000000	0
0.8650	2028.000000	0
0.8660	2032.000000	0
0.8670	2036.000000	0
0.8680	2040.000000	0
0.8690	2042.000000	0
0.8700	2045.000000	0
0.8710	2046.000000	0
0.8720	2049.000000	0
0.8730	2049.000000	0
0.8740	2048.000000	0
0.8750	2048.000000	0
0.8760	2044.000000	0
0.8770	2040.000000	0
0.8780	2036.000000	0
0.8790	2033.000000	0
0.8800	2031.000000	0
0.8810	2031.000000	0
0.8820	2029.000000	0
0.8830	2029.000000	0
0.8840	2028.000000	0
0.8850	2032.000000	0
0.8860	2036.000000	0
0.8870	2042.000000	0
0.8880	2045.000000	0
0.8890	2049.000000	0
0.8900	2052.000000	0
0.8910	2054.000000	0
0.8920	2055.000000	0
0.8930	2054.000000	0
0.8940	2054.000000	0
0.8950	2052.000000	0
0.8960	2049.000000	0
0.8970	2044.000000	0
0.8980	2038.000000	0
0.8990	2035.000000	0
0.9000	2033.000000	0
0.9010	2033.000000	0
0.9020	2031.000000	0
0.9030	2029.000000	0
0.9040	2030.000000	0
0.9050	2034.000000	0
0.9060	2037.000000	0
0.9070	2042.000000	0
0.9080	2046.000000	0
0.9090	2049.000000	0
0.9100	2050.000000	0
0.9110	2053.000000	0
0.9120	2055.000000	0
0.9130	2056.000000	0
0.9140	2055.000000	0
0.9150	2053.000000	0
0.9160	2049.000000	0
0.9170	2045.000000	0
0.9180	2041.000000	0
0.9190	2038.000000	0
0.9200	2037.000000	0
0.9210	2037.000000	0
0.9220	2036.000000	0
0.9230	2034.000000	0
0.9240	2036.000000	0
0.9250	2039.000000	0
0.9260	2043.000000	0
0.9270	2047.000000	0
0.9280	2051.000000	0
0.9290	2055.000000	0
0.9300	2056.000000	0
0.9310	2057.000000	0
0.9320	2060.000000	0
0.9330	2061.000000	0
0.9340	2059.000000	0
0.9350	2057.000000	0
0.9360	2053.000000	0
0.9370	2049.000000	0
0.9380	2044.000000	0
0.9390	2041.000000	0
0.9400	2040.000000	0
0.9410	2037.000000	0
0.9420	2036.000000	0
0.9430	2034.000000	0
0.9440	2034.000000	0
0.9450	2038.000000	0
0.9460	2041.000000	0
0.9470	2048.000000	0
0.9480	2051.000000	0
0.9490	2054.000000	0
0.9500	2057.000000	0
0.9510	2058.000000	0
0.9520	2060.000000	0
0.9530	2060.000000	0
0.9540	2059.000000	0
0.9550	2057.000000	0
0.9560	2054.000000	0
0.9570	2049.000000	0
0.9580	2042.000000	0
0.9590	2041.000000	0
0.9600	2040.000000	0
0.9610	2039.000000	0
0.9620	2038.000000	0
0.9630	2035.000000	0
0.9640	2037.000000	0
0.9650	2040.000000	0
0.9660	2044.000000	0
0.9670	2049.000000	0
0.9680	2050.000000	0
0.9690	2056.000000	0
0.9700	2058.000000	0
0.9710	2061.000000	0
0.9720	2061.000000	0
0.9730	2061.000000	0
0.9740	2059.000000	0
0.9750	2056.000000	0
0.9760	2052.000000	0
0.9770	2049.000000	0
0.9780	2043.000000	0
0.9790	2040.000000	0
0.9800	2040.000000	0
0.9810	2038.000000	0
0.9820	2037.000000	0
0.9830	2035.000000	0
0.9840	2036.000000	0
0.9850	2038.000000	0
0.9860	2042.000000	0
0.9870	2047.000000	0
0.9880	2051.000000	0
0.9890	2054.000000	0
0.9900	2056.000000	0
0.9910	2060.000000	0
0.9920	2062.000000	0
0.9930	2061.000000	0
0.9940	2060.000000	0
0.9950	2058.000000	0
0.9960	2052.000000	0
0.9970	2050.000000	0
0.9980	2044.000000	0
0.9990	2041.000000	0
1.0000	2041.000000	0
1.0010	2040.000000	0
1.0020	2038.000000	0
1.0030	2037.000000	0
1.0040	2037.000000	0
1.0050	2040.000000	0
1.0060	2044.000000	0
1.0070	2049.000000	0
1.0080	2052.000000	0
1.0090	2055.000000	0
1.0100	2057.000000	0
1.0110	2059.000000	0
1.0120	2060.000000	0
1.0130	2060.000000	0
1.0140	2058.000000	0
1.0150	2057.000000	0
1.0160	2053.000000	0
1.0170	2048.000000	0
1.0180	2044.000000	0
1.0190	2041.000000	0
1.0200	2040.000000	0
1.0210	2038.000000	0
1.0220	2036.000000	0
1.0230	2036.000000	0
1.0240	2036.000000	0
1.0250	2042.000000	0
1.0260	2048.000000	0
1.0270	2053.000000	0
1.0280	2057.000000	0
1.0290	2060.000000	0
1.0300	2064.000000	0
1.0310	2066.000000	0
1.0320	2067.000000	0
1.0330	2067.000000	0
1.0340	2068.000000	0
1.0350	2065.000000	0
1.0360	2062.000000	0
1.0370	2058.000000	0
1.0380	2054.000000	0
1.0390	2052.000000	0
1.0400	2051.000000	0
1.0410	2049.000000	0
1.0420	2048.000000	0
1.0430	2047.000000	0
1.0440	2047.000000	0
1.0450	2050.000000	0
1.0460	2053.000000	0
1.0470	2058.000000	0
1.0480	2062.000000	0
1.0490	2065.000000	0
1.0500	2069.000000	0
1.0510	2069.000000	0
1.0520	2072.000000	0
1.0530	2070.000000	0
1.0540	2068.000000	0
1.0550	2065.000000	0
1.0560	2060.000000	0
1.0570	2056.000000	0
1.0580	2052.000000	0
1.0590	2048.000000	0
1.0600	2045.000000	0
1.0610	2042.000000	0
1.0620	2040.000000	0
1.0630	2040.000000	0
1.0640	2042.000000	0
1.0650	2045.000000	0
1.0660	2050.000000	0
1.0670	2053.000000	0
1.0680	2057.000000	0
1.0690	2060.000000	0
1.0700	2063.000000	0
1.0710	2063.000000	0
1.0720	2064.000000	0
1.0730	2063.000000	0
1.0740	2062.000000	0
1.0750	2060.000000	0
1.0760	2056.000000	0
1.0770	2050.000000	0
1.0780	2045.000000	0
1.0790	2042.000000	0
1.0800	2042.000000	0
1.0810	2040.000000	0
1.0820	2039.000000	0
1.0830	2037.000000	0
1.0840	2037.000000	0
1.0850	2040.000000	0
1.0860	2044.000000	0
1.0870	2050.000000	0
1.0880	2053.000000	0
1.0890	2056.000000	0
1.0900	2059.000000	0
1.0910	2060.000000	0
1.0920	2062.000000	0
1.0930	2062.000000	0
1.0940	2061.000000	0
1.0950	2060.000000	0
1.0960	2057.000000	0
1.0970	2053.000000	0
1.0980	2048.000000	0
1.0990	2044.000000	0
1.1000	2044.000000	0
1.1010	2043.000000	0
1.1020	2042.000000	0
1.1030	2041.000000	0
1.1040	2040.000000	0
1.1050	2045.000000	0
1.1060	2049.000000	0
1.1070	2054.000000	0
1.1080	2057.000000	0
1.1090	2061.000000	0
1.1100	2064.000000	0
1.1110	2066.000000	0
1.1120	2066.000000	0
1.1130	2065.000000	0
1.1140	2063.000000	0
1.1150	2062.000000	0
1.1160	2059.000000	0
1.1170	2055.000000	0
1.1180	2050.000000	0
1.1190	2046.000000	0
1.1200	2044.000000	0
1.1210	2044.000000	0
1.1220	2043.000000	0
1.1230	2041.000000	0
1.1240	2042.000000	0
1.1250	2048.000000	0
1.1260	2051.000000	0
1.1270	2054.000000	0
1.1280	2058.000000	0
1.1290	2062.000000	0
1.1300	2065.000000	0
1.1310	2066.000000	0
1.1320	2067.000000	0
1.1330	2066.000000	0
1.1340	2064.000000	0
1.1350	2063.000000	0
1.1360	2060.000000	0
1.1370	2055.000000	0
1.1380	2050.000000	0
1.1390	2048.000000	0
1.1400	2047.000000	0
1.1410	2047.000000	0
1.1420	2046.000000	0
1.1430	2044.000000	0
1.1440	2044.000000	0
1.1450	2048.000000	0
1.1460	2052.000000	0
1.1470	2057.000000	0
1.1480	2061.000000	0
1.1490	2064.000000	0
1.1500	2066.000000	0
1.1510	2067.000000	0
1.1520	2067.000000	0
1.1530	2065.000000	0
1.1540	2064.000000	0
1.1550	2061.000000	0
1.1560	2057.000000	0
1.1570	2052.000000	0
1.1580	2047.000000	0
1.1590	2043.000000	0
1.1600	2042.000000	0
1.1610	2037.000000	0
1.1620	2033.000000	0
1.1630	2029.000000	0
1.1640	2024.000000	0
1.1650	2024.000000	0
1.1660	2023.000000	0
1.1670	2023.000000	0
1.1680	2022.000000	0
1.1690	2021.000000	0
1.1700	2021.000000	0
1.1710	2023.000000	0
1.1720	2023.000000	0
1.1730	2023.000000	0
1.1740	2025.000000	0
1.1750	2026.000000	0
1.1760	2027.000000	0
1.1770	2026.000000	0
1.1780	2025.000000	0
1.1790	2026.000000	0
1.1800	2030.000000	0
1.1810	2030.000000	0
1.1820	2033.000000	0
1.1830	2035.000000	0
1.1840	2044.000000	0
1.1850	2059.000000	0
1.1860	2077.000000	0
1.1870	2104.000000	0
1.1880	2136.000000	0
1.1890	2170.000000	0
1.1900	2207.000000	0
1.1910	2241.000000	0
1.1920	2273.000000	0
1.1930	2299.000000	0
1.1940	2320.000000	0
1.1950	2340.000000	0
1.1960	2353.000000	0
1.1970	2365.000000	0
1.1980	2371.000000	0
1.1990	2378.000000	0
1.2000	2387.000000	0
1.2010	2394.000000	0
1.2020	2403.000000	0
1.2030	2411.000000	0
1.2040	2418.000000	1
1.2050	2426.000000	0
1.2060	2430.000000	0
1.2070	2430.000000	0
1.2080	2423.000000	0
1.2090	2413.000000	0
1.2100	2395.000000	0
1.2110	2372.000000	0
1.2120	2342.000000	0
1.2130	2304.000000	0
1.2140	2266.000000	0
1.2150	2225.000000	0
1.2160	2187.000000	0
1.2170	2148.000000	0
1.2180	2115.000000	0
1.2190	2091.000000	0
1.2200	2076.000000	0
1.2210	2066.000000	0
1.2220	2057.000000	0
1.2230	2052.000000	0
1.2240	2048.000000	0
1.2250	2048.000000	0
1.2260	2050.000000	0
1.2270	2052.000000	0
1.2280	2054.000000	0
1.2290	2054.000000	0
1.2300	2056.000000	0
1.2310	2055.000000	0
1.2320	2053.000000	0
1.2330	2051.000000	0
1.2340	2047.000000	0
1.2350	2043.000000	0
1.2360	2039.000000	0
1.2370	2034.000000	0
1.2380	2028.000000	0
1.2390	2023.000000	0
1.2400	2020.000000	0
1.2410	2018.000000	0
1.2420	2015.000000	0
1.2430	2013.000000	0
1.2440	2013.000000	0
1.2450	2017.000000	0
1.2460	2021.000000	0
1.2470	2024.000000	0
1.2480	2027.000000	0
1.2490	2029.000000	0
1.2500	2029.000000	0
1.2510	2032.000000	0
1.2520	2032.000000	0
1.2530	2030.000000	0
1.2540	2029.000000	0
1.2550	2027.000000	0
1.2560	2022.000000	0
1.2570	2018.000000	0
1.2580	2014.000000	0
1.2590	2011.000000	0
1.2600	2010.000000	0
1.2610	2008.000000	0
1.2620	2006.000000	0
1.2630	2006.000000	0
1.2640	2008.000000	0
1.2650	2011.000000	0
1.2660	2016.000000	0
1.2670	2020.000000	0
1.2680	2023.000000	0
1.2690	2027.000000	0
1.2700	2030.000000	0
1.2710	2030.000000	0
1.2720	2031.000000	0
1.2730	2030.000000	0
1.2740	2030.000000	0
1.2750	2027.000000	0
1.2760	2023.000000	0
1.2770	2018.000000	0
1.2780	2015.000000	0
1.2790	2014.000000	0
1.2800	2012.000000	0
1.2810	2012.000000	0
1.2820	2010.000000	0
1.2830	2008.000000	0
1.2840	2008.000000	0
1.2850	2013.000000	0
1.2860	2017.000000	0
1.2870	2021.000000	0
1.2880	2025.000000	0
1.2890	2028.000000	0
1.2900	2032.000000	0
1.2910	2033.000000	0
1.2920	2034.000000	0
1.2930	2034.000000	0
1.2940	2033.000000	0
1.2950	2033.000000	0
1.2960	2028.000000	0
1.2970	2024.000000	0
1.2980	2020.000000	0
1.2990	2019.000000	0
1.3000	2018.000000	0
1.3010	2017.000000	0
1.3020	2017.000000	0
1.3030	2016.000000	0
1.3040	2017.000000	0
1.3050	2020.000000	0
1.3060	2024.000000	0
1.3070	2029.000000	0
1.3080	2033.000000	0
1.3090	2037.000000	0
1.3100	2041.000000	0
1.3110	2043.000000	0
1.3120	2043.000000	0
1.3130	2044.000000	0
1.3140	2043.000000	0
1.3150	2041.000000	0
1.3160	2036.000000	0
1.3170	2032.000000	0
1.3180	2028.000000	0
1.3190	2026.000000	0
1.3200	2025.000000	0
1.3210	2023.000000	0
1.3220	2022.000000	0
1.3230	2021.000000	0
1.3240	2024.000000	0
1.3250	2028.000000	0
1.3260	2033.000000	0
1.3270	2037.000000	0
1.3280	2042.000000	0
1.3290	2046.000000	0
1.3300	2048.000000	0
1.3310	2052.000000	0
1.3320	2053.000000	0
1.3330	2051.000000	0
1.3340	2048.000000	0
1.3350	2047.000000	0
1.3360	2042.000000	0
1.3370	2038.000000	0
1.3380	2035.000000	0
1.3390	2033.000000	0
1.3400	2034.000000	0
1.3410	2032.000000	0
1.3420	2030.000000	0
1.3430	2032.000000	0
1.3440	2032.000000	0
1.3450	2036.000000	0
1.3460	2040.000000	0
1.3470	2045.000000	0
1.3480	2048.000000	0
1.3490	2053.000000	0
1.3500	2057.000000	0
1.3510	2059.000000	0
1.3520	2060.000000	0
1.3530	2059.000000	0
1.3540	2059.000000	0
1.3550	2056.000000	0
1.3560	2054.000000	0
1.3570	2050.000000	0
1.3580	2046.000000	0
1.3590	2043.000000	0
1.3600	2044.000000	0
1.3610	2044.000000	0
1.3620	2042.000000	0
1.3630	2042.000000	0
1.3640	2044.000000	0
1.3650	2049.000000	0
1.3660	2053.000000	0
1.3670	2057.000000	0
1.3680	2061.000000	0
1.3690	2064.000000	0
1.3700	2068.000000	0
1.3710	2068.000000	0
1.3720	2070.000000	0
1.3730	2069.000000	0
1.3740	2069.000000	0
1.3750	2066.000000	0
1.3760	2063.000000	0
1.3770	2060.000000	0
1.3780	2056.000000	0
1.3790	2054.000000	0
1.3800	2055.000000	0
1.3810	2053.000000	0
1.3820	2051.000000	0
1.3830	2050.000000	0
1.3840	2053.000000	0
1.3850	2058.000000	0
1.3860	2062.000000	0
1.3870	2067.000000	0
1.3880	2071.000000	0
1.3890	2076.000000	0
1.3900	2080.000000	0
1.3910	2080.000000	0
1.3920	2081.000000	0
1.3930	2081.000000	0
1.3940	2079.000000	0
1.3950	2076.000000	0
1.3960	2075.000000	0
1.3970	2072.000000	0
1.3980	2068.000000	0
1.3990	2065.000000	0
1.4000	2066.000000	0
1.4010	2064.000000	0
1.4020	2061.000000	0
1.4030	2063.000000	0
1.4040	2065.000000	0
1.4050	2070.000000	0
1.4060	2075.000000	0
1.4070	2080.000000	0
1.4080	2085.000000	0
1.4090	2090.000000	0
1.4100	2092.000000	0
1.4110	2097.000000	0
1.4120	2098.000000	0
1.4130	2096.000000	0
1.4140	2096.000000	0
1.4150	2095.000000	0
1.4160	2089.000000	0
1.4170	2087.000000	0
1.4180	2082.000000	0
1.4190	2080.000000	0
1.4200	2078.000000	0
1.4210	2078.000000	0
1.4220	2078.000000	0
1.4230	2078.000000	0
1.4240	2079.000000	0
1.4250	2084.000000	0
1.4260	2088.000000	0
1.4270	2093.000000	0
1.4280	2098.000000	0
1.4290	2101.000000	0
1.4300	2105.000000	0
1.4310	2107.000000	0
1.4320	2108.000000	0
1.4330	2108.000000	0
1.4340	2106.000000	0
1.4350	2102.000000	0
1.4360	2100.000000	0
1.4370	2095.000000	0
1.4380	2091.000000	0
1.4390	2088.000000	0
1.4400	2085.000000	0
1.4410	2086.000000	0
1.4420	2084.000000	0
1.4430	2084.000000	0
1.4440	2086.000000	0
1.4450	2091.000000	0
1.4460	2094.000000	0
1.4470	2100.000000	0
1.4480	2102.000000	0
1.4490	2105.000000	0
1.4500	2107.000000	0
1.4510	2110.000000	0
1.4520	2111.000000	0
1.4530	2111.000000	0
1.4540	2108.000000	0
1.4550	2107.000000	0
1.4560	2102.000000	0
1.4570	2097.000000	0
1.4580	2091.000000	0
1.4590	2088.000000	0
1.4600	2087.000000	0
1.4610	2085.000000	0
1.4620	2083.000000	0
1.4630	2080.000000	0
1.4640	2081.000000	0
1.4650	2085.000000	0
1.4660	2088.000000	0
1.4670	2091.000000	0
1.4680	2093.000000	0
1.4690	2095.000000	0
1.4700	2097.000000	0
1.4710	2096.000000	0
1.4720	2094.000000	0
1.4730	2091.000000	0
1.4740	2088.000000	0
1.4750	2084.000000	0
1.4760	2078.000000	0
1.4770	2071.000000	0
1.4780	2065.000000	0
1.4790	2060.000000	0
1.4800	2057.000000	0
1.4810	2054.000000	0
1.4820	2051.000000	0
1.4830	2048.000000	0
1.4840	2048.000000	0
1.4850	2050.000000	0
1.4860	2051.000000	0
1.4870	2055.000000	0
1.4880	2057.000000	0
1.4890	2058.000000	0
1.4900	2061.000000	0
1.4910	2059.000000	0
1.4920	2058.000000	0
1.4930	2055.000000	0
1.4940	2051.000000	0
1.4950	2048.000000	0
1.4960	2042.000000	0
1.4970	2034.000000	0
1.4980	2030.000000	0
1.4990	2025.000000	0
1.5000	2023.000000	0
1.5010	2021.000000	0
1.5020	2019.000000	0
1.5030	2017.000000	0
1.5040	2017.000000	0
1.5050	2020.000000	0
1.5060	2023.000000	0
1.5070	2026.000000	0
1.5080	2029.000000	0
1.5090	2031.000000	0
1.5100	2032.000000	0
1.5110	2032.000000	0
1.5120	2030.000000	0
1.5130	2029.000000	0
1.5140	2026.000000	0
1.5150	2022.000000	0
1.5160	2017.000000	0
1.5170	2011.000000	0
1.5180	2006.000000	0
1.5190	2004.000000	0
1.5200	2002.000000	0
1.5210	1999.000000	0
1.5220	1997.000000	0
1.5230	1997.000000	0
1.5240	1999.000000	0
1.5250	2003.000000	0
1.5260	2007.000000	0
1.5270	2011.000000	0
1.5280	2013.000000	0
1.5290	2016.000000	0
1.5300	2016.000000	0
1.5310	2019.000000	0
1.5320	2019.000000	0
1.5330	2017.000000	0
1.5340	2016.000000	0
1.5350	2014.000000	0
1.5360	2008.000000	0
1.5370	2005.000000	0
1.5380	2001.000000	0
1.5390	1999.000000	0
1.5400	1997.000000	0
1.5410	1997.000000	0
1.5420	1995.000000	0
1.5430	1994.000000	0
1.5440	1997.000000	0
1.5450	2001.000000	0
1.5460	2005.000000	0
1.5470	2010.000000	0
1.5480	2014.000000	0
1.5490	2016.000000	0
1.5500	2020.000000	0
1.5510	2022.000000	0
1.5520	2022.000000	0
1.5530	2021.000000	0
1.5540	2019.000000	0
1.5550	2017.000000	0
1.5560	2012.000000	0
1.5570	2008.000000	0
1.5580	2003.000000	0
1.5590	2003.000000	0
1.5600	2002.000000	0
1.5610	2001.000000	0
1.5620	2000.000000	0
1.5630	1999.000000	0
1.5640	2001.000000	0
1.5650	2005.000000	0
1.5660	2010.000000	0
1.5670	2012.000000	0
1.5680	2017.000000	0
1.5690	2021.000000	0
1.5700	2026.000000	0
1.5710	2027.000000	0
1.5720	2027.000000	0
1.5730	2026.000000	0
1.5740	2026.000000	0
1.5750	2023.000000	0
1.5760	2019.000000	0
1.5770	2014.000000	0
1.5780	2011.000000	0
1.5790	2009.000000	0
1.5800	2008.000000	0
1.5810	2006.000000	0
1.5820	2005.000000	0
1.5830	2005.000000	0
1.5840	2006.000000	0
1.5850	2011.000000	0
1.5860	2016.000000	0
1.5870	2022.000000	0
1.5880	2025.000000	0
1.5890	2030.000000	0
1.5900	2031.000000	0
1.5910	2033.000000	0
1.5920	2032.000000	0
1.5930	2030.000000	0
1.5940	2029.000000	0
1.5950	2026.000000	0
1.5960	2023.000000	0
1.5970	2018.000000	0
1.5980	2014.000000	0
1.5990	2012.000000	0
1.6000	2011.000000	0
1.6010	2011.000000	0
1.6020	2009.000000	0
1.6030	2010.000000	0
1.6040	2012.000000	0
1.6050	2017.000000	0
1.6060	2021.000000	0
1.6070	2024.000000	0
1.6080	2030.000000	0
1.6090	2034.000000	0
1.6100	2037.000000	0
1.6110	2039.000000	0
1.6120	2038.000000	0
1.6130	2037.000000	0
1.6140	2036.000000	0
1.6150	2032.000000	0
1.6160	2029.000000	0
1.6170	2025.000000	0
1.6180	2020.000000	0
1.6190	2017.000000	0
1.6200	2016.000000	0
1.6210	2016.000000	0
1.6220	2016.000000	0
1.6230	2016.000000	0
1.6240	2017.000000	0
1.6250	2022.000000	0
1.6260	2026.000000	0
1.6270	2029.000000	0
1.6280	2033.000000	0
1.6290	2036.000000	0
1.6300	2040.000000	0
1.6310	2041.000000	0
1.6320	2040.000000	0
1.6330	2041.000000	0
1.6340	2038.000000	0
1.6350	2036.000000	0
1.6360	2030.000000	0
1.6370	2026.000000	0
1.6380	2022.000000	0
1.6390	2020.000000	0
1.6400	2018.000000	0
1.6410	2018.000000	0
1.6420	2017.000000	0
1.6430	2018.000000	0
1.6440	2020.000000	0
1.6450	2024.000000	0
1.6460	2029.000000	0
1.6470	2031.000000	0
1.6480	2035.000000	0
1.6490	2040.000000	0
1.6500	2044.000000	0
1.6510	2045.000000	0
1.6520	2045.000000	0
1.6530	2043.000000	0
1.6540	2042.000000	0
1.6550	2039.000000	0
1.6560	2034.000000	0
1.6570	2029.000000	0
1.6580	2024.000000	0
1.6590	2021.000000	0
1.6600	2020.000000	0
1.6610	2018.000000	0
1.6620	2017.000000	0
1.6630	2017.000000	0
1.6640	2020.000000	0
1.6650	2025.000000	0
1.6660	2029.000000	0
1.6670	2034.000000	0
1.6680	2036.000000	0
1.6690	2039.000000	0
1.6700	2041.000000	0
1.6710	2042.000000	0
1.6720	2043.000000	0
1.6730	2041.000000	0
1.6740	2041.000000	0
1.6750	2036.000000	0
1.6760	2031.000000	0
1.6770	2026.000000	0
1.6780	2022.000000	0
1.6790	2021.000000	0
1.6800	2021.000000	0
1.6810	2020.000000	0
1.6820	2019.000000	0
1.6830	2019.000000	0
1.6840	2021.000000	0
1.6850	2027.000000	0
1.6860	2031.000000	0
1.6870	2035.000000	0
1.6880	2040.000000	0
1.6890	2043.000000	0
1.6900	2044.000000	0
1.6910	2046.000000	0
1.6920	2048.000000	0
1.6930	2046.000000	0
1.6940	2042.000000	0
1.6950	2041.000000	0
1.6960	2036.000000	0
1.6970	2033.000000	0
1.6980	2029.000000	0
1.6990	2027.000000	0
1.7000	2025.000000	0
1.7010	2023.000000	0
1.7020	2023.000000	0
1.7030	2023.000000	0
1.7040	2025.000000	0
1.7050	2029.000000	0
1.7060	2035.000000	0
1.7070	2039.000000	0
1.7080	2041.000000	0
1.7090	2045.000000	0
1.7100	2047.000000	0
1.7110	2049.000000	0
1.7120	2049.000000	0
1.7130	2047.000000	0
1.7140	2044.000000	0
1.7150	2041.000000	0
1.7160	2037.000000	0
1.7170	2033.000000	0
1.7180	2029.000000	0
1.7190	2027.000000	0
1.7200	2026.000000	0
1.7210	2027.000000	0
1.7220	2025.000000	0
1.7230	2025.000000	0
1.7240	2027.000000	0
1.7250	2031.000000	0
1.7260	2036.000000	0
1.7270	2041.000000	0
1.7280	2043.000000	0
1.7290	2047.000000	0
1.7300	2049.000000	0
1.7310	2051.000000	0
1.7320	2050.000000	0
1.7330	2050.000000	0
1.7340	2048.000000	0
1.7350	2044.000000	0
1.7360	2039.000000	0
1.7370	2034.000000	0
1.7380	2030.000000	0
1.7390	2027.000000	0
1.7400	2027.000000	0
1.7410	2025.000000	0
1.7420	2025.000000	0
1.7430	2025.000000	0
1.7440	2028.000000	0
1.7450	2031.000000	0
1.7460	2036.000000	0
1.7470	2040.000000	0
1.7480	2042.000000	0
1.7490	2045.000000	0
1.7500	2049.000000	0
1.7510	2049.000000	0
1.7520	2050.000000	0
1.7530	2048.000000	0
1.7540	2046.000000	0
1.7550	2044.000000	0
1.7560	2039.000000	0
1.7570	2035.000000	0
1.7580	2030.000000	0
1.7590	2030.000000	0
1.7600	2029.000000	0
1.7610	2029.000000	0
1.7620	2027.000000	0
1.7630	2028.000000	0
1.7640	2031.000000	0
1.7650	2035.000000	0
1.7660	2039.000000	0
1.7670	2044.000000	0
1.7680	2048.000000	0
1.7690	2050.000000	0
1.7700	2053.000000	0
1.7710	2054.000000	0
1.7720	2054.000000	0
1.7730	2053.000000	0
1.7740	2051.000000	0
1.7750	2048.000000	0
1.7760	2042.000000	0
1.7770	2037.000000	0
1.7780	2033.000000	0
1.7790	2031.000000	0
1.7800	2030.000000	0
1.7810	2029.000000	0
1.7820	2027.000000	0
1.7830	2028.000000	0
1.7840	2031.000000	0
1.7850	2034.000000	0
1.7860	2040.000000	0
1.7870	2043.000000	0
1.7880	2049.000000	0
1.7890	2053.000000	0
1.7900	2055.000000	0
1.7910	2056.000000	0
1.7920	2056.000000	0
1.7930	2053.000000	0
1.7940	2051.000000	0
1.7950	2049.000000	0
1.7960	2043.000000	0
1.7970	2039.000000	0
1.7980	2035.000000	0
1.7990	2033.000000	0
1.8000	2031.000000	0
1.8010	2031.000000	0
1.8020	2029.000000	0
1.8030	2030.000000	0
1.8040	2033.000000	0
1.8050	2038.000000	0
1.8060	2043.000000	0
1.8070	2048.000000	0
1.8080	2050.000000	0
1.8090	2054.000000	0
1.8100	2058.000000	0
1.8110	2057.000000	0
1.8120	2057.000000	0
1.8130	2056.000000	0
1.8140	2052.000000	0
1.8150	2051.000000	0
1.8160	2046.000000	0
1.8170	2041.000000	0
1.8180	2037.000000	0
1.8190	2035.000000	0
1.8200	2035.000000	0
1.8210	2033.000000	0
1.8220	2031.000000	0
1.8230	2031.000000	0
1.8240	2035.000000	0
1.8250	2039.000000	0
1.8260	2044.000000	0
1.8270	2048.000000	0
1.8280	2051.000000	0
1.8290	2054.000000	0
1.8300	2057.000000	0
1.8310	2058.000000	0
1.8320	2057.000000	0
1.8330	2057.000000	0
1.8340	2055.000000	0
1.8350	2051.000000	0
1.8360	2048.000000	0
1.8370	2042.000000	0
1.8380	2039.000000	0
1.8390	2039.000000	0
1.8400	2037.000000	0
1.8410	2037.000000	0
1.8420	2035.000000	0
1.8430	2037.000000	0
1.8440	2040.000000	0
1.8450	2045.000000	0
1.8460	2049.000000	0
1.8470	2054.000000	0
1.8480	2057.000000	0
1.8490	2060.000000	0
1.8500	2062.000000	0
1.8510	2063.000000	0
1.8520	2062.000000	0
1.8530	2060.000000	0
1.8540	2058.000000	0
1.8550	2056.000000	0
1.8560	2051.000000	0
1.8570	2045.000000	0
1.8580	2040.000000	0
1.8590	2040.000000	0
1.8600	2038.000000	0
1.8610	2036.000000	0
1.8620	2036.000000	0
1.8630	2037.000000	0
1.8640	2041.000000	0
1.8650	2046.000000	0
1.8660	2050.000000	0
1.8670	2054.000000	0
1.8680	2058.000000	0
1.8690	2062.000000	0
1.8700	2062.000000	0
1.8710	2064.000000	0
1.8720	2063.000000	0
1.8730	2061.000000	0
1.8740	2060.000000	0
1.8750	2056.000000	0
1.8760	2053.000000	0
1.8770	2048.000000	0
1.8780	2044.000000	0
1.8790	2041.000000	0
1.8800	2041.000000	0
1.8810	2040.000000	0
1.8820	2039.000000	0
1.8830	2039.000000	0
1.8840	2043.000000	0
1.8850	2047.000000	0
1.8860	2052.000000	0
1.8870	2056.000000	0
1.8880	2060.000000	0
1.8890	2064.000000	0
1.8900	2065.000000	0
1.8910	2067.000000	0
1.8920	2066.000000	0
1.8930	2063.000000	0
1.8940	2062.000000	0
1.8950	2059.000000	0
1.8960	2054.000000	0
1.8970	2048.000000	0
1.8980	2044.000000	0
1.8990	2044.000000	0
1.9000	2042.000000	0
1.9010	2040.000000	0
1.9020	2040.000000	0
1.9030	2041.000000	0
1.9040	2047.000000	0
1.9050	2050.000000	0
1.9060	2056.000000	0
1.9070	2060.000000	0
1.9080	2063.000000	0
1.9090	2068.000000	0
1.9100	2070.000000	0
1.9110	2071.000000	0
1.9120	2070.000000	0
1.9130	2069.000000	0
1.9140	2067.000000	0
1.9150	2063.000000	0
1.9160	2057.000000	0
1.9170	2053.000000	0
1.9180	2048.000000	0
1.9190	2045.000000	0
1.9200	2045.000000	0
1.9210	2045.000000	0
1.9220	2045.000000	0
1.9230	2045.000000	0
1.9240	2049.000000	0
1.9250	2053.000000	0
1.9260	2057.000000	0
1.9270	2060.000000	0
1.9280	2064.000000	0
1.9290	2068.000000	0
1.9300	2069.000000	0
1.9310	2071.000000	0
1.9320	2070.000000	0
1.9330	2067.000000	0
1.9340	2065.000000	0
1.9350	2062.000000	0
1.9360	2058.000000	0
1.9370	2052.000000	0
1.9380	2048.000000	0
1.9390	2046.000000	0
1.9400	2043.000000	0
1.9410	2042.000000	0
1.9420	2041.000000	0
1.9430	2041.000000	0
1.9440	2046.000000	0
1.9450	2050.000000	0
1.9460	2055.000000	0
1.9470	2059.000000	0
1.9480	2062.000000	0
1.9490	2066.000000	0
1.9500	2067.000000	0
1.9510	2068.000000	0
1.9520	2066.000000	0
1.9530	2065.000000	0
1.9540	2063.000000	0
1.9550	2058.000000	0
1.9560	2053.000000	0
1.9570	2048.000000	0
1.9580	2043.000000	0
1.9590	2042.000000	0
1.9600	2041.000000	0
1.9610	2040.000000	0
1.9620	2040.000000	0
1.9630	2042.000000	0
1.9640	2047.000000	0
1.9650	2050.000000	0
1.9660	2055.000000	0
1.9670	2060.000000	0
1.9680	2062.000000	0
1.9690	2066.000000	0
1.9700	2068.000000	0
1.9710	2069.000000	0
1.9720	2068.000000	0
1.9730	2067.000000	0
1.9740	2065.000000	0
1.9750	2061.000000	0
1.9760	2058.000000	0
1.9770	2053.000000	0
1.9780	2050.000000	0
1.9790	2050.000000	0
1.9800	2048.000000	0
1.9810	2048.000000	0
1.9820	2048.000000	0
1.9830	2049.000000	0
1.9840	2054.000000	0
1.9850	2058.000000	0
1.9860	2063.000000	0
1.9870	2067.000000	0
1.9880	2069.000000	0
1.9890	2073.000000	0
1.9900	2077.000000	0
1.9910	2078.000000	0
1.9920	2076.000000	0
1.9930	2075.000000	0
1.9940	2074.000000	0
1.9950	2070.000000	0
1.9960	2065.000000	0
1.9970	2059.000000	0
1.9980	2055.000000	0
1.9990	2055.000000	0
2.0000	2052.000000	0
2.0010	2051.000000	0
2.0020	2050.000000	0
2.0030	2051.000000	0
2.0040	2056.000000	0
2.0050	2060.000000	0
2.0060	2065.000000	0
2.0070	2069.000000	0
2.0080	2072.000000	0
2.0090	2076.000000	0
2.0100	2077.000000	0
2.0110	2077.000000	0
2.0120	2075.000000	0
2.0130	2073.000000	0
2.0140	2070.000000	0
2.0150	2068.000000	0
2.0160	2062.000000	0
2.0170	2056.000000	0
2.0180	2053.000000	0
2.0190	2053.000000	0
2.0200	2051.000000	0
2.0210	2050.000000	0
2.0220	2049.000000	0
2.0230	2049.000000	0
2.0240	2053.000000	0
2.0250	2056.000000	0
2.0260	2061.000000	0
2.0270	2063.000000	0
2.0280	2066.000000	0
2.0290	2069.000000	0
2.0300	2072.000000	0
2.0310	2072.000000	0
2.0320	2069.000000	0
2.0330	2067.000000	0
2.0340	2065.000000	0
2.0350	2062.000000	0
2.0360	2056.000000	0
2.0370	2051.000000	0
2.0380	2047.000000	0
2.0390	2046.000000	0
2.0400	2046.000000	0
2.0410	2045.000000	0
2.0420	2044.000000	0
2.0430	2044.000000	0
2.0440	2047.000000	0
2.0450	2052.000000	0
2.0460	2057.000000	0
2.0470	2060.000000	0
2.0480	2063.000000	0
2.0490	2066.000000	0
2.0500	2068.000000	0
2.0510	2069.000000	0
2.0520	2068.000000	0
2.0530	2066.000000	0
2.0540	2064.000000	0
2.0550	2060.000000	0
2.0560	2055.000000	0
2.0570	2051.000000	0
2.0580	2047.000000	0
2.0590	2045.000000	0
2.0600	2044.000000	0
2.0610	2043.000000	0
2.0620	2041.000000	0
2.0630	2041.000000	0
2.0640	2047.000000	0
2.0650	2051.000000	0
2.0660	2056.000000	0
2.0670	2060.000000	0
2.0680	2064.000000	0
2.0690	2066.000000	0
2.0700	2070.000000	0
2.0710	2070.000000	0
2.0720	2070.000000	0
2.0730	2068.000000	0
2.0740	2066.000000	0
2.0750	2062.000000	0
2.0760	2057.000000	0
2.0770	2053.000000	0
2.0780	2050.000000	0
2.0790	2049.000000	0
2.0800	2047.000000	0
2.0810	2044.000000	0
2.0820	2044.000000	0
2.0830	2044.000000	0
2.0840	2046.000000	0
2.0850	2051.000000	0
2.0860	2055.000000	0
2.0870	2058.000000	0
2.0880	2061.000000	0
2.0890	2066.000000	0
2.0900	2069.000000	0
2.0910	2069.000000	0
2.0920	2068.000000	0
2.0930	2067.000000	0
2.0940	2065.000000	0
2.0950	2061.000000	0
2.0960	2054.000000	0
2.0970	2050.000000	0
2.0980	2045.000000	0
2.0990	2043.000000	0
2.1000	2044.000000	0
2.1010	2042.000000	0
2.1020	2042.000000	0
2.1030	2042.000000	0
2.1040	2048.000000	0
2.1050	2051.000000	0
2.1060	2055.000000	0
2.1070	2059.000000	0
2.1080	2063.000000	0
2.1090	2066.000000	0
2.1100	2067.000000	0
2.1110	2067.000000	0
2.1120	2066.000000	0
2.1130	2064.000000	0
2.1140	2061.000000	0
2.1150	2053.000000	0
2.1160	2046.000000	0
2.1170	2038.000000	0
2.1180	2030.000000	0
2.1190	2024.000000	0
2.1200	2018.000000	0
2.1210	2011.000000	0
2.1220	2005.000000	0
2.1230	2002.000000	0
2.1240	2001.000000	0
2.1250	2004.000000	0
2.1260	2008.000000	0
2.1270	2012.000000	0
2.1280	2017.000000	0
2.1290	2023.000000	0
2.1300	2028.000000	0
2.1310	2033.000000	0
2.1320	2033.000000	0
2.1330	2035.000000	0
2.1340	2033.000000	0
2.1350	2031.000000	0
2.1360	2028.000000	0
2.1370	2028.000000	0
2.1380	2036.000000	0
2.1390	2052.000000	0
2.1400	2078.000000	0
2.1410	2107.000000	0
2.1420	2139.000000	0
2.1430	2174.000000	0
2.1440	2209.000000	0
2.1450	2243.000000	0
2.1460	2273.000000	0
2.1470	2299.000000	0
2.1480	2321.000000	0
2.1490	2340.000000	0
2.1500	2358.000000	0
2.1510	2373.000000	0
2.1520	2388.000000	0
2.1530	2402.000000	0
2.1540	2416.000000	0
2.1550	2430.000000	0
2.1560	2441.000000	0
2.1570	2450.000000	0
2.1580	2461.000000	0
2.1590	2469.000000	1
2.1600	2476.000000	0
2.1610	2479.000000	0
2.1620	2476.000000	0
2.1630	2467.000000	0
2.1640	2450.000000	0
2.1650	2426.000000	0
2.1660	2395.000000	0
2.1670	2357.000000	0
2.1680	2318.000000	0
2.1690	2279.000000	0
2.1700	2237.000000	0
2.1710	2197.000000	0
2.1720	2160.000000	0
2.1730	2130.000000	0
2.1740	2108.000000	0
2.1750	2090.000000	0
2.1760	2075.000000	0
2.1770	2064.000000	0
2.1780	2056.000000	0
2.1790	2052.000000	0
2.1800	2048.000000	0
2.1810	2044.000000	0
2.1820	2038.000000	0
2.1830	2037.000000	0
2.1840	2039.000000	0
2.1850	2040.000000	0
2.1860	2043.000000	0
2.1870	2044.000000	0
2.1880	2046.000000	0
2.1890	2048.000000	0
2.1900	2047.000000	0
2.1910	2045.000000	0
2.1920	2043.000000	0
2.1930	2038.000000	0
2.1940	2035.000000	0
2.1950	2028.000000	0
2.1960	2022.000000	0
2.1970	2017.000000	0
2.1980	2012.000000	0
2.1990	2008.000000	0
2.2000	2006.000000	0
2.2010	2004.000000	0
2.2020	2002.000000	0
2.2030	2002.000000	0
2.2040	2005.000000	0
2.2050	2008.000000	0
2.2060	2013.000000	0
2.2070	2017.000000	0
2.2080	2020.000000	0
2.2090	2021.000000	0
2.2100	2025.000000	0
2.2110	2025.000000	0
2.2120	2023.000000	0
2.2130	2022.000000	0
2.2140	2021.000000	0
2.2150	2015.000000	0
2.2160	2011.000000	0
2.2170	2005.000000	0
2.2180	2002.000000	0
2.2190	2001.000000	0
2.2200	1999.000000	0
2.2210	1998.000000	0
2.2220	1998.000000	0
2.2230	1999.000000	0
2.2240	2004.000000	0
2.2250	2008.000000	0
2.2260	2013.000000	0
2.2270	2017.000000	0
2.2280	2021.000000	0
2.2290	2025.000000	0
2.2300	2027.000000	0
2.2310	2028.000000	0
2.2320	2027.000000	0
2.2330	2025.000000	0
2.2340	2023.000000	0
2.2350	2017.000000	0
2.2360	2012.000000	0
2.2370	2008.000000	0
2.2380	2005.000000	0
2.2390	2004.000000	0
2.2400	2003.000000	0
2.2410	2001.000000	0
2.2420	2000.000000	0
2.2430	2001.000000	0
2.2440	2006.000000	0
2.2450	2009.000000	0
2.2460	2014.000000	0
2.2470	2018.000000	0
2.2480	2022.000000	0
2.2490	2027.000000	0
2.2500	2028.000000	0
2.2510	2029.000000	0
2.2520	2028.000000	0
2.2530	2026.000000	0
2.2540	2025.000000	0
2.2550	2019.000000	0
2.2560	2015.000000	0
2.2570	2011.000000	0
2.2580	2007.000000	0
2.2590	2007.000000	0
2.2600	2005.000000	0
2.2610	2005.000000	0
2.2620	2005.000000	0
2.2630	2006.000000	0
2.2640	2013.000000	0
2.2650	2016.000000	0
2.2660	2020.000000	0
2.2670	2026.000000	0
2.2680	2030.000000	0
2.2690	2035.000000	0
2.2700	2036.000000	0
2.2710	2036.000000	0
2.2720	2035.000000	0
2.2730	2035.000000	0
2.2740	2033.000000	0
2.2750	2028.000000	0
2.2760	2024.000000	0
2.2770	2018.000000	0
2.2780	2016.000000	0
2.2790	2014.000000	0
2.2800	2013.000000	0
2.2810	2012.000000	0
2.2820	2012.000000	0
2.2830	2013.000000	0
2.2840	2018.000000	0
2.2850	2023.000000	0
2.2860	2027.000000	0
2.2870	2031.000000	0
2.2880	2037.000000	0
2.2890	2039.000000	0
2.2900	2042.000000	0
2.2910	2043.000000	0
2.2920	2042.000000	0
2.2930	2041.000000	0
2.2940	2041.000000	0
2.2950	2036.000000	0
2.2960	2031.000000	0
2.2970	2025.000000	0
2.2980	2024.000000	0
2.2990	2024.000000	0
2.3000	2022.000000	0
2.3010	2021.000000	0
2.3020	2022.000000	0
2.3030	2024.000000	0
2.3040	2028.000000	0
2.3050	2033.000000	0
2.3060	2038.000000	0
2.3070	2043.000000	0
2.3080	2048.000000	0
2.3090	2054.000000	0
2.3100	2054.000000	0
2.3110	2054.000000	0
2.3120	2054.000000	0
2.3130	2052.000000	0
2.3140	2050.000000	0
2.3150	2045.000000	0
2.3160	2039.000000	0
2.3170	2035.000000	0
2.3180	2033.000000	0
2.3190	2032.000000	0
2.3200	2031.000000	0
2.3210	2030.000000	0
2.3220	2030.000000	0
2.3230	2032.000000	0
2.3240	2036.000000	0
2.3250	2040.000000	0
2.3260	2045.000000	0
2.3270	2049.000000	0
2.3280	2054.000000	0
2.3290	2059.000000	0
2.3300	2062.000000	0
2.3310	2062.000000	0
2.3320	2063.000000	0
2.3330	2060.000000	0
2.3340	2057.000000	0
2.3350	2055.000000	0
2.3360	2050.000000	0
2.3370	2046.000000	0
2.3380	2043.000000	0
2.3390	2041.000000	0
2.3400	2042.000000	0
2.3410	2041.000000	0
2.3420	2041.000000	0
2.3430	2043.000000	0
2.3440	2048.000000	0
2.3450	2054.000000	0
2.3460	2060.000000	0
2.3470	2065.000000	0
2.3480	2069.000000	0
2.3490	2073.000000	0
2.3500	2076.000000	0
2.3510	2076.000000	0
2.3520	2077.000000	0
2.3530	2076.000000	0
2.3540	2074.000000	0
2.3550	2070.000000	0
2.3560	2066.000000	0
2.3570	2062.000000	0
2.3580	2061.000000	0
2.3590	2060.000000	0
2.3600	2060.000000	0
2.3610	2059.000000	0
2.3620	2060.000000	0
2.3630	2062.000000	0
2.3640	2066.000000	0
2.3650	2073.000000	0
2.3660	2078.000000	0
2.3670	2083.000000	0
2.3680	2087.000000	0
2.3690	2091.000000	0
2.3700	2094.000000	0
2.3710	2096.000000	0
2.3720	2095.000000	0
2.3730	2094.000000	0
2.3740	2091.000000	0
2.3750	2089.000000	0
2.3760	2084.000000	0
2.3770	2078.000000	0
2.3780	2077.000000	0
2.3790	2077.000000	0
2.3800	2076.000000	0
2.3810	2076.000000	0
2.3820	2075.000000	0
2.3830	2078.000000	0
2.3840	2083.000000	0
2.3850	2088.000000	0
2.3860	2092.000000	0
2.3870	2097.000000	0
2.3880	2102.000000	0
2.3890	2105.000000	0
2.3900	2107.000000	0
2.3910	2106.000000	0
2.3920	2106.000000	0
2.3930	2107.000000	0
2.3940	2104.000000	0
2.3950	2098.000000	0
2.3960	2093.000000	0
2.3970	2089.000000	0
2.3980	2086.000000	0
2.3990	2083.000000	0
2.4000	2083.000000	0
2.4010	2081.000000	0
2.4020	2082.000000	0
2.4030	2085.000000	0
2.4040	2090.000000	0
2.4050	2095.000000	0
2.4060	2099.000000	0
2.4070	2103.000000	0
2.4080	2107.000000	0
2.4090	2110.000000	0
2.4100	2112.000000	0
2.4110	2112.000000	0
2.4120	2110.000000	0
2.4130	2107.000000	0
2.4140	2103.000000	0
2.4150	2099.000000	0
2.4160	2094.000000	0
2.4170	2089.000000	0
2.4180	2085.000000	0
2.4190	2083.000000	0
2.4200	2079.000000	0
2.4210	2077.000000	0
2.4220	2075.000000	0
2.4230	2077.000000	0
2.4240	2079.000000	0
2.4250	2083.000000	0
2.4260	2087.000000	0
2.4270	2088.000000	0
2.4280	2092.000000	0
2.4290	2094.000000	0
2.4300	2094.000000	0
2.4310	2093.000000	0
2.4320	2090.000000	0
2.4330	2086.000000	0
2.4340	2083.000000	0
2.4350	2076.000000	0
2.4360	2069.000000	0
2.4370	2062.000000	0
2.4380	2057.000000	0
2.4390	2055.000000	0
2.4400	2052.000000	0
2.4410	2051.000000	0
2.4420	2047.000000	0
2.4430	2047.000000	0
2.4440	2049.000000	0
2.4450	2050.000000	0
2.4460	2054.000000	0
2.4470	2057.000000	0
2.4480	2059.000000	0
2.4490	2060.000000	0
2.4500	2060.000000	0
2.4510	2057.000000	0
2.4520	2055.000000	0
2.4530	2052.000000	0
2.4540	2048.000000	0
2.4550	2041.000000	0
2.4560	2034.000000	0
2.4570	2029.000000	0
2.4580	2025.000000	0
2.4590	2022.000000	0
2.4600	2019.000000	0
2.4610	2017.000000	0
2.4620	2015.000000	0
2.4630	2017.000000	0
2.4640	2018.000000	0
2.4650	2021.000000	0
2.4660	2024.000000	0
2.4670	2027.000000	0
2.4680	2030.000000	0
2.4690	2032.000000	0
2.4700	2031.000000	0
2.4710	2031.000000	0
2.4720	2029.000000	0
2.4730	2027.000000	0
2.4740	2023.000000	0
2.4750	2017.000000	0
2.4760	2011.000000	0
2.4770	2005.000000	0
2.4780	2001.000000	0
2.4790	1999.000000	0
2.4800	1997.000000	0
2.4810	1996.000000	0
2.4820	1996.000000	0
2.4830	1998.000000	0
2.4840	2002.000000	0
2.4850	2005.000000	0
2.4860	2010.000000	0
2.4870	2013.000000	0
2.4880	2017.000000	0
2.4890	2019.000000	0
2.4900	2021.000000	0
2.4910	2021.000000	0
2.4920	2020.000000	0
2.4930	2019.000000	0
2.4940	2015.000000	0
2.4950	2010.000000	0
2.4960	2005.000000	0
2.4970	2000.000000	0
2.4980	1998.000000	0
2.4990	1996.000000	0
2.5000	1994.000000	0
2.5010	1993.000000	0
2.5020	1992.000000	0
2.5030	1994.000000	0
2.5040	1997.000000	0
2.5050	2003.000000	0
2.5060	2009.000000	0
2.5070	2012.000000	0
2.5080	2016.000000	0
2.5090	2020.000000	0
2.5100	2022.000000	0
2.5110	2023.000000	0
2.5120	2021.000000	0
2.5130	2021.000000	0
2.5140	2017.000000	0
2.5150	2013.000000	0
2.5160	2009.000000	0
2.5170	2005.000000	0
2.5180	2002.000000	0
2.5190	2001.000000	0
2.5200	1999.000000	0
2.5210	1998.000000	0
2.5220	1998.000000	0
2.5230	2001.000000	0
2.5240	2006.000000	0
2.5250	2010.000000	0
2.5260	2015.000000	0
2.5270	2019.000000	0
2.5280	2024.000000	0
2.5290	2027.000000	0
2.5300	2030.000000	0
2.5310	2030.000000	0
2.5320	2028.000000	0
2.5330	2027.000000	0
2.5340	2023.000000	0
2.5350	2018.000000	0
2.5360	2011.000000	0
2.5370	2008.000000	0
2.5380	2006.000000	0
2.5390	2003.000000	0
2.5400	2004.000000	0
2.5410	2002.000000	0
2.5420	2001.000000	0
2.5430	2004.000000	0
2.5440	2008.000000	0
2.5450	2013.000000	0
2.5460	2016.000000	0
2.5470	2023.000000	0
2.5480	2028.000000	0
2.5490	2032.000000	0
2.5500	2033.000000	0
2.5510	2033.000000	0
2.5520	2034.000000	0
2.5530	2033.000000	0
2.5540	2030.000000	0
2.5550	2025.000000	0
2.5560	2019.000000	0
2.5570	2015.000000	0
2.5580	2013.000000	0
2.5590	2011.000000	0
2.5600	2011.000000	0
2.5610	2009.000000	0
2.5620	2010.000000	0
2.5630	2013.000000	0
2.5640	2017.000000	0
2.5650	2022.000000	0
2.5660	2027.000000	0
2.5670	2031.000000	0
2.5680	2035.000000	0
2.5690	2039.000000	0
2.5700	2041.000000	0
2.5710	2041.000000	0
2.5720	2040.000000	0
2.5730	2039.000000	0
2.5740	2036.000000	0
2.5750	2031.000000	0
2.5760	2026.000000	0
2.5770	2021.000000	0
2.5780	2019.000000	0
2.5790	2016.000000	0
2.5800	2015.000000	0
2.5810	2011.000000	0
2.5820	2013.000000	0
2.5830	2015.000000	0
2.5840	2018.000000	0
2.5850	2024.000000	0
2.5860	2030.000000	0
2.5870	2035.000000	0
2.5880	2040.000000	0
2.5890	2043.000000	0
2.5900	2044.000000	0
2.5910	2043.000000	0
2.5920	2043.000000	0
2.5930	2040.000000	0
2.5940	2039.000000	0
2.5950	2034.000000	0
2.5960	2028.000000	0
2.5970	2022.000000	0
2.5980	2020.000000	0
2.5990	2018.000000	0
2.6000	2017.000000	0
2.6010	2017.000000	0
2.6020	2017.000000	0
2.6030	2018.000000	0
2.6040	2024.000000	0
2.6050	2028.000000	0
2.6060	2031.000000	0
2.6070	2037.000000	0
2.6080	2042.000000	0
2.6090	2045.000000	0
2.6100	2046.000000	0
2.6110	2047.000000	0
2.6120	2045.000000	0
2.6130	2044.000000	0
2.6140	2040.000000	0
2.6150	2036.000000	0
2.6160	2030.000000	0
2.6170	2026.000000	0
2.6180	2024.000000	0
2.6190	2022.000000	0
2.6200	2022.000000	0
2.6210	2020.000000	0
2.6220	2018.000000	0
2.6230	2020.000000	0
2.6240	2023.000000	0
2.6250	2027.000000	0
2.6260	2032.000000	0
2.6270	2037.000000	0
2.6280	2043.000000	0
2.6290	2046.000000	0
2.6300	2048.000000	0
2.6310	2048.000000	0
2.6320	2046.000000	0
2.6330	2045.000000	0
2.6340	2043.000000	0
2.6350	2038.000000	0
2.6360	2033.000000	0
2.6370	2028.000000	0
2.6380	2024.000000	0
2.6390	2024.000000	0
2.6400	2023.000000	0
2.6410	2021.000000	0
2.6420	2022.000000	0
2.6430	2024.000000	0
2.6440	2029.000000	0
2.6450	2034.000000	0
2.6460	2038.000000	0
2.6470	2042.000000	0
2.6480	2047.000000	0
2.6490	2049.000000	0
2.6500	2051.000000	0
2.6510	2051.000000	0
2.6520	2049.000000	0
2.6530	2049.000000	0
2.6540	2044.000000	0
2.6550	2041.000000	0
2.6560	2036.000000	0
2.6570	2031.000000	0
2.6580	2029.000000	0
2.6590	2027.000000	0
2.6600	2025.000000	0
2.6610	2023.000000	0
2.6620	2023.000000	0
2.6630	2026.000000	0
2.6640	2030.000000	0
2.6650	2035.000000	0
2.6660	2040.000000	0
2.6670	2045.000000	0
2.6680	2049.000000	0
2.6690	2053.000000	0
2.6700	2055.000000	0
2.6710	2054.000000	0
2.6720	2053.000000	0
2.6730	2052.000000	0
2.6740	2048.000000	0
2.6750	2044.000000	0
2.6760	2037.000000	0
2.6770	2032.000000	0
2.6780	2028.000000	0
2.6790	2027.000000	0
2.6800	2026.000000	0
2.6810	2025.000000	0
2.6820	2025.000000	0
2.6830	2028.000000	0
2.6840	2032.000000	0
2.6850	2037.000000	0
2.6860	2041.000000	0
2.6870	2048.000000	0
2.6880	2052.000000	0
2.6890	2055.000000	0
2.6900	2056.000000	0
2.6910	2055.000000	0
2.6920	2054.000000	0
2.6930	2053.000000	0
2.6940	2050.000000	0
2.6950	2045.000000	0
2.6960	2038.000000	0
2.6970	2034.000000	0
2.6980	2032.000000	0
2.6990	2032.000000	0
2.7000	2030.000000	0
2.7010	2028.000000	0
2.7020	2028.000000	0
2.7030	2030.000000	0
2.7040	2035.000000	0
2.7050	2040.000000	0
2.7060	2045.000000	0
2.7070	2050.000000	0
2.7080	2054.000000	0
2.7090	2059.000000	0
2.7100	2060.000000	0
2.7110	2060.000000	0
2.7120	2059.000000	0
2.7130	2057.000000	0
2.7140	2056.000000	0
2.7150	2050.000000	0
2.7160	2045.000000	0
2.7170	2039.000000	0
2.7180	2037.000000	0
2.7190	2036.000000	0
2.7200	2035.000000	0
2.7210	2034.000000	0
2.7220	2034.000000	0
2.7230	2036.000000	0
2.7240	2041.000000	0
2.7250	2045.000000	0
2.7260	2049.000000	0
2.7270	2054.000000	0
2.7280	2059.000000	0
2.7290	2062.000000	0
2.7300	2063.000000	0
2.7310	2063.000000	0
2.7320	2062.000000	0
2.7330	2059.000000	0
2.7340	2056.000000	0
2.7350	2052.000000	0
2.7360	2047.000000	0
2.7370	2041.000000	0
2.7380	2038.000000	0
2.7390	2038.000000	0
2.7400	2037.000000	0
2.7410	2036.000000	0
2.7420	2036.000000	0
2.7430	2040.000000	0
2.7440	2043.000000	0
2.7450	2048.000000	0
2.7460	2052.000000	0
2.7470	2056.000000	0
2.7480	2060.000000	0
2.7490	2063.000000	0
2.7500	2065.000000	0
2.7510	2064.000000	0
2.7520	2063.000000	0
2.7530	2063.000000	0
2.7540	2059.000000	0
2.7550	2054.000000	0
2.7560	2046.000000	0
2.7570	2042.000000	0
2.7580	2041.000000	0
2.7590	2039.000000	0
2.7600	2037.000000	0
2.7610	2036.000000	0
2.7620	2036.000000	0
2.7630	2040.000000	0
2.7640	2043.000000	0
2.7650	2047.000000	0
2.7660	2053.000000	0
2.7670	2057.000000	0
2.7680	2062.000000	0
2.7690	2065.000000	0
2.7700	2066.000000	0
2.7710	2066.000000	0
2.7720	2064.000000	0
2.7730	2063.000000	0
2.7740	2059.000000	0
2.7750	2054.000000	0
2.7760	2048.000000	0
2.7770	2043.000000	0
2.7780	2040.000000	0
2.7790	2036.000000	0
2.7800	2036.000000	0
2.7810	2035.000000	0
2.7820	2034.000000	0
2.7830	2038.000000	0
2.7840	2042.000000	0
2.7850	2048.000000	0
2.7860	2052.000000	0
2.7870	2056.000000	0
2.7880	2063.000000	0
2.7890	2064.000000	0
2.7900	2066.000000	0
2.7910	2065.000000	0
2.7920	2063.000000	0
2.7930	2064.000000	0
2.7940	2059.000000	0
2.7950	2054.000000	0
2.7960	2047.000000	0
2.7970	2041.000000	0
2.7980	2039.000000	0
2.7990	2039.000000	0
2.8000	2037.000000	0
2.8010	2035.000000	0
2.8020	2034.000000	0
2.8030	2037.000000	0
2.8040	2040.000000	0
2.8050	2045.000000	0
2.8060	2049.000000	0
2.8070	2053.000000	0
2.8080	2059.000000	0
2.8090	2063.000000	0
2.8100	2064.000000	0
2.8110	2064.000000	0
2.8120	2063.000000	0
2.8130	2061.000000	0
2.8140	2056.000000	0
2.8150	2051.000000	0
2.8160	2044.000000	0
2.8170	2039.000000	0
2.8180	2038.000000	0
2.8190	2035.000000	0
2.8200	2034.000000	0
2.8210	2032.000000	0
2.8220	2033.000000	0
2.8230	2036.000000	0
2.8240	2041.000000	0
2.8250	2046.000000	0
2.8260	2052.000000	0
2.8270	2056.000000	0
2.8280	2061.000000	0
2.8290	2063.000000	0
2.8300	2064.000000	0
2.8310	2064.000000	0
2.8320	2062.000000	0
2.8330	2061.000000	0
2.8340	2058.000000	0
2.8350	2054.000000	0
2.8360	2049.000000	0
2.8370	2044.000000	0
2.8380	2042.000000	0
2.8390	2039.000000	0
2.8400	2038.000000	0
2.8410	2036.000000	0
2.8420	2037.000000	0
2.8430	2041.000000	0
2.8440	2043.000000	0
2.8450	2048.000000	0
2.8460	2051.000000	0
2.8470	2057.000000	0
2.8480	2060.000000	0
2.8490	2063.000000	0
2.8500	2063.000000	0
2.8510	2063.000000	0
2.8520	2063.000000	0
2.8530	2063.000000	0
2.8540	2059.000000	0
2.8550	2054.000000	0
2.8560	2049.000000	0
2.8570	2043.000000	0
2.8580	2040.000000	0
2.8590	2040.000000	0
2.8600	2038.000000	0
2.8610	2037.000000	0
2.8620	2036.000000	0
2.8630	2040.000000	0
2.8640	2044.000000	0
2.8650	2049.000000	0
2.8660	2053.000000	0
2.8670	2058.000000	0
2.8680	2063.000000	0
2.8690	2065.000000	0
2.8700	2067.000000	0
2.8710	2066.000000	0
2.8720	2065.000000	0
2.8730	2065.000000	0
2.8740	2060.000000	0
2.8750	2055.000000	0
2.8760	2050.000000	0
2.8770	2045.000000	0
2.8780	2043.000000	0
2.8790	2042.000000	0
2.8800	2041.000000	0
2.8810	2039.000000	0
2.8820	2040.000000	0
2.8830	2042.000000	0
2.8840	2047.000000	0
2.8850	2051.000000	0
2.8860	2055.000000	0
2.8870	2059.000000	0
2.8880	2064.000000	0
2.8890	2065.000000	0
2.8900	2067.000000	0
2.8910	2066.000000	0
2.8920	2066.000000	0
2.8930	2063.000000	0
2.8940	2060.000000	0
2.8950	2055.000000	0
2.8960	2049.000000	0
2.8970	2045.000000	0
2.8980	2042.000000	0
2.8990	2041.000000	0
2.9000	2041.000000	0
2.9010	2039.000000	0
2.9020	2041.000000	0
2.9030	2043.000000	0
2.9040	2046.000000	0
2.9050	2052.000000	0
2.9060	2056.000000	0
2.9070	2060.000000	0
2.9080	2065.000000	0
2.9090	2067.000000	0
2.9100	2068.000000	0
2.9110	2068.000000	0
2.9120	2067.000000	0
2.9130	2065.000000	0
2.9140	2063.000000	0
2.9150	2058.000000	0
2.9160	2051.000000	0
2.9170	2046.000000	0
2.9180	2045.000000	0
2.9190	2042.000000	0
2.9200	2040.000000	0
2.9210	2038.000000	0
2.9220	2037.000000	0
2.9230	2040.000000	0
2.9240	2042.000000	0
2.9250	2048.000000	0
2.9260	2053.000000	0
2.9270	2058.000000	0
2.9280	2063.000000	0
2.9290	2067.000000	0
2.9300	2067.000000	0
2.9310	2067.000000	0
2.9320	2067.000000	0
2.9330	2063.000000	0
2.9340	2060.000000	0
2.9350	2056.000000	0
2.9360	2050.000000	0
2.9370	2046.000000	0
2.9380	2044.000000	0
2.9390	2043.000000	0
2.9400	2041.000000	0
2.9410	2040.000000	0
2.9420	2042.000000	0
2.9430	2044.000000	0
2.9440	2049.000000	0
2.9450	2053.000000	0
2.9460	2057.000000	0
2.9470	2060.000000	0
2.9480	2065.000000	0
2.9490	2067.000000	0
2.9500	2068.000000	0
2.9510	2066.000000	0
2.9520	2066.000000	0
2.9530	2065.000000	0
2.9540	2062.000000	0
2.9550	2058.000000	0
2.9560	2053.000000	0
2.9570	2049.000000	0
2.9580	2045.000000	0
2.9590	2043.000000	0
2.9600	2044.000000	0
2.9610	2041.000000	0
2.9620	2041.000000	0
2.9630	2044.000000	0
2.9640	2049.000000	0
2.9650	2054.000000	0
2.9660	2058.000000	0
2.9670	2063.000000	0
2.9680	2068.000000	0
2.9690	2069.000000	0
2.9700	2070.000000	0
2.9710	2069.000000	0
2.9720	2068.000000	0
2.9730	2066.000000	0
2.9740	2062.000000	0
2.9750	2056.000000	0
2.9760	2050.000000	0
2.9770	2045.000000	0
2.9780	2042.000000	0
2.9790	2040.000000	0
2.9800	2038.000000	0
2.9810	2037.000000	0
2.9820	2038.000000	0
2.9830	2041.000000	0
2.9840	2044.000000	0
2.9850	2049.000000	0
2.9860	2053.000000	0
2.9870	2057.000000	0
2.9880	2061.000000	0
2.9890	2065.000000	0
2.9900	2066.000000	0
2.9910	2066.000000	0
2.9920	2065.000000	0
2.9930	2063.000000	0
2.9940	2061.000000	0
2.9950	2057.000000	0
2.9960	2050.000000	0
2.9970	2046.000000	0
2.9980	2044.000000	0
2.9990	2041.000000	0
3.0000	2040.000000	0
3.0010	2039.000000	0
3.0020	2041.000000	0
3.0030	2044.000000	0
3.0040	2051.000000	0
3.0050	2056.000000	0
3.0060	2062.000000	0
3.0070	2068.000000	0
3.0080	2074.000000	0
3.0090	2075.000000	0
3.0100	2078.000000	0
3.0110	2077.000000	0
3.0120	2077.000000	0
3.0130	2076.000000	0
3.0140	2071.000000	0
3.0150	2065.000000	0
3.0160	2060.000000	0
3.0170	2056.000000	0
3.0180	2054.000000	0
3.0190	2054.000000	0
3.0200	2054.000000	0
3.0210	2051.000000	0
3.0220	2052.000000	0
3.0230	2055.000000	0
3.0240	2059.000000	0
3.0250	2063.000000	0
3.0260	2067.000000	0
3.0270	2072.000000	0
3.0280	2076.000000	0
3.0290	2078.000000	0
3.0300	2079.000000	0
3.0310	2079.000000	0
3.0320	2077.000000	0
3.0330	2074.000000	0
3.0340	2071.000000	0
3.0350	2065.000000	0
3.0360	2059.000000	0
3.0370	2054.000000	0
3.0380	2052.000000	0
3.0390	2050.000000	0
3.0400	2050.000000	0
3.0410	2048.000000	0
3.0420	2047.000000	0
3.0430	2051.000000	0
3.0440	2053.000000	0
3.0450	2058.000000	0
3.0460	2061.000000	0
3.0470	2065.000000	0
3.0480	2071.000000	0
3.0490	2071.000000	0
3.0500	2071.000000	0
3.0510	2071.000000	0
3.0520	2069.000000	0
3.0530	2067.000000	0
3.0540	2061.000000	0
3.0550	2055.000000	0
3.0560	2049.000000	0
3.0570	2045.000000	0
3.0580	2042.000000	0
3.0590	2041.000000	0
3.0600	2039.000000	0
3.0610	2039.000000	0
3.0620	2041.000000	0
3.0630	2042.000000	0
3.0640	2048.000000	0
3.0650	2051.000000	0
3.0660	2055.000000	0
3.0670	2061.000000	0
3.0680	2066.000000	0
3.0690	2068.000000	0
3.0700	2070.000000	0
3.0710	2069.000000	0
3.0720	2068.000000	0
3.0730	2067.000000	0
3.0740	2064.000000	0
3.0750	2057.000000	0
3.0760	2051.000000	0
3.0770	2048.000000	0
3.0780	2046.000000	0
3.0790	2042.000000	0
3.0800	2041.000000	0
3.0810	2040.000000	0
3.0820	2041.000000	0
3.0830	2043.000000	0
3.0840	2046.000000	0
3.0850	2051.000000	0
3.0860	2056.000000	0
3.0870	2060.000000	0
3.0880	2065.000000	0
3.0890	2067.000000	0
3.0900	2068.000000	0
3.0910	2069.000000	0
3.0920	2070.000000	0
3.0930	2068.000000	0
3.0940	2064.000000	0
3.0950	2058.000000	0
3.0960	2053.000000	0
3.0970	2049.000000	0
3.0980	2045.000000	0
3.0990	2045.000000	0
3.1000	2044.000000	0
3.1010	2042.000000	0
3.1020	2042.000000	0
3.1030	2045.000000	0
3.1040	2049.000000	0
3.1050	2054.000000	0
3.1060	2058.000000	0
3.1070	2063.000000	0
3.1080	2068.000000	0
3.1090	2069.000000	0
3.1100	2070.000000	0
3.1110	2068.000000	0
3.1120	2069.000000	0
3.1130	2067.000000	0
3.1140	2063.000000	0
3.1150	2057.000000	0
3.1160	2051.000000	0
3.1170	2047.000000	0
3.1180	2046.000000	0
3.1190	2044.000000	0
3.1200	2042.000000	0
3.1210	2040.000000	0
3.1220	2042.000000	0
3.1230	2045.000000	0
3.1240	2050.000000	0
3.1250	2054.000000	0
3.1260	2058.000000	0
3.1270	2062.000000	0
3.1280	2066.000000	0
3.1290	2070.000000	0
3.1300	2071.000000	0
3.1310	2069.000000	0
3.1320	2068.000000	0
3.1330	2067.000000	0
3.1340	2061.000000	0
3.1350	2057.000000	0
3.1360	2052.000000	0
3.1370	2048.000000	0
3.1380	2045.000000	0
3.1390	2043.000000	0
3.1400	2041.000000	0
3.1410	2039.000000	0
3.1420	2040.000000	0
3.1430	2041.000000	0
3.1440	2044.000000	0
3.1450	2046.000000	0
3.1460	2048.000000	0
3.1470	2049.000000	0
3.1480	2048.000000	0
3.1490	2045.000000	0
3.1500	2040.000000	0
3.1510	2035.000000	0
3.1520	2029.000000	0
3.1530	2023.000000	0
3.1540	2016.000000	0
3.1550	2011.000000	0
3.1560	2004.000000	0
3.1570	2001.000000	0
3.1580	2000.000000	0
3.1590	2001.000000	0
3.1600	2002.000000	0
3.1610	2003.000000	0
3.1620	2008.000000	0
3.1630	2014.000000	0
3.1640	2019.000000	0
3.1650	2026.000000	0
3.1660	2033.000000	0
3.1670	2045.000000	0
3.1680	2062.000000	0
3.1690	2084.000000	0
3.1700	2111.000000	0
3.1710	2141.000000	0
3.1720	2173.000000	0
3.1730	2205.000000	0
3.1740	2234.000000	0
3.1750	2257.000000	0
3.1760	2277.000000	0
3.1770	2296.000000	0
3.1780	2312.000000	0
3.1790	2329.000000	0
3.1800	2343.000000	0
3.1810	2355.000000	0
3.1820	2371.000000	0
3.1830	2389.000000	0
3.1840	2410.000000	0
3.1850	2429.000000	0
3.1860	2450.000000	0
3.1870	2469.000000	0
3.1880	2485.000000	1
3.1890	2495.000000	0
3.1900	2502.000000	0
3.1910	2503.000000	0
3.1920	2499.000000	0
3.1930	2482.000000	0
3.1940	2455.000000	0
3.1950	2420.000000	0
3.1960	2377.000000	0
3.1970	2332.000000	0
3.1980	2286.000000	0
3.1990	2238.000000	0
3.2000	2196.000000	0
3.2010	2157.000000	0
3.2020	2125.000000	0
3.2030	2103.000000	0
3.2040	2089.000000	0
3.2050	2080.000000	0
3.2060	2076.000000	0
3.2070	2076.000000	0
3.2080	2076.000000	0
3.2090	2075.000000	0
3.2100	2073.000000	0
3.2110	2069.000000	0
3.2120	2065.000000	0
3.2130	2059.000000	0
3.2140	2054.000000	0
3.2150	2046.000000	0
3.2160	2039.000000	0
3.2170	2033.000000	0
3.2180	2029.000000	0
3.2190	2023.000000	0
3.2200	2019.000000	0
3.2210	2015.000000	0
3.2220	2015.000000	0
3.2230	2015.000000	0
3.2240	2016.000000	0
3.2250	2019.000000	0
3.2260	2023.000000	0
3.2270	2026.000000	0
3.2280	2029.000000	0
3.2290	2030.000000	0
3.2300	2029.000000	0
3.2310	2028.000000	0
3.2320	2027.000000	0
3.2330	2022.000000	0
3.2340	2018.000000	0
3.2350	2011.000000	0
3.2360	2006.000000	0
3.2370	2001.000000	0
3.2380	1997.000000	0
3.2390	1995.000000	0
3.2400	1993.000000	0
3.2410	1993.000000	0
3.2420	1993.000000	0
3.2430	1995.000000	0
3.2440	1999.000000	0
3.2450	2003.000000	0
3.2460	2007.000000	0
3.2470	2012.000000	0
3.2480	2017.000000	0
3.2490	2019.000000	0
3.2500	2020.000000	0
3.2510	2019.000000	0
3.2520	2019.000000	0
3.2530	2017.000000	0
3.2540	2012.000000	0
3.2550	2008.000000	0
3.2560	2003.000000	0
3.2570	2000.000000	0
3.2580	1997.000000	0
3.2590	1995.000000	0
3.2600	1993.000000	0
3.2610	1994.000000	0
3.2620	1996.000000	0
3.2630	2000.000000	0
3.2640	2003.000000	0
3.2650	2007.000000	0
3.2660	2012.000000	0
3.2670	2017.000000	0
3.2680	2022.000000	0
3.2690	2024.000000	0
3.2700	2025.000000	0
3.2710	2024.000000	0
3.2720	2023.000000	0
3.2730	2020.000000	0
3.2740	2015.000000	0
3.2750	2011.000000	0
3.2760	2007.000000	0
3.2770	2004.000000	0
3.2780	2002.000000	0
3.2790	2001.000000	0
3.2800	2001.000000	0
3.2810	2001.000000	0
3.2820	2002.000000	0
3.2830	2005.000000	0
3.2840	2009.000000	0
3.2850	2013.000000	0
3.2860	2017.000000	0
3.2870	2025.000000	0
3.2880	2028.000000	0
3.2890	2034.000000	0
3.2900	2035.000000	0
3.2910	2035.000000	0
3.2920	2034.000000	0
3.2930	2032.000000	0
3.2940	2027.000000	0
3.2950	2021.000000	0
3.2960	2017.000000	0
3.2970	2013.000000	0
3.2980	2012.000000	0
3.2990	2012.000000	0
3.3000	2010.000000	0
3.3010	2010.000000	0
3.3020	2012.000000	0
3.3030	2015.000000	0
3.3040	2018.000000	0
3.3050	2024.000000	0
3.3060	2029.000000	0
3.3070	2035.000000	0
3.3080	2039.000000	0
3.3090	2041.000000	0
3.3100	2042.000000	0
3.3110	2042.000000	0
3.3120	2040.000000	0
3.3130	2039.000000	0
3.3140	2035.000000	0
3.3150	2028.000000	0
3.3160	2024.000000	0
3.3170	2020.000000	0
3.3180	2018.000000	0
3.3190	2017.000000	0
3.3200	2017.000000	0
3.3210	2017.000000	0
3.3220	2018.000000	0
3.3230	2020.000000	0
3.3240	2025.000000	0
3.3250	2029.000000	0
3.3260	2034.000000	0
3.3270	2040.000000	0
3.3280	2044.000000	0
3.3290	2047.000000	0
3.3300	2048.000000	0
3.3310	2048.000000	0
3.3320	2046.000000	0
3.3330	2046.000000	0
3.3340	2042.000000	0
3.3350	2037.000000	0
3.3360	2033.000000	0
3.3370	2031.000000	0
3.3380	2029.000000	0
3.3390	2028.000000	0
3.3400	2026.000000	0
3.3410	2024.000000	0
3.3420	2026.000000	0
3.3430	2028.000000	0
3.3440	2034.000000	0
3.3450	2040.000000	0
3.3460	2045.000000	0
3.3470	2052.000000	0
3.3480	2056.000000	0
3.3490	2059.000000	0
3.3500	2061.000000	0
3.3510	2060.000000	0
3.3520	2060.000000	0
3.3530	2057.000000	0
3.3540	2054.000000	0
3.3550	2048.000000	0
3.3560	2043.000000	0
3.3570	2040.000000	0
3.3580	2040.000000	0
3.3590	2037.000000	0
3.3600	2035.000000	0
3.3610	2035.000000	0
3.3620	2036.000000	0
3.3630	2041.000000	0
3.3640	2045.000000	0
3.3650	2050.000000	0
3.3660	2055.000000	0
3.3670	2062.000000	0
3.3680	2065.000000	0
3.3690	2067.000000	0
3.3700	2068.000000	0
3.3710	2069.000000	0
3.3720	2069.000000	0
3.3730	2067.000000	0
3.3740	2064.000000	0
3.3750	2057.000000	0
3.3760	2053.000000	0
3.3770	2051.000000	0
3.3780	2048.000000	0
3.3790	2048.000000	0
3.3800	2048.000000	0
3.3810	2048.000000	0
3.3820	2050.000000	0
3.3830	2054.000000	0
3.3840	2057.000000	0
3.3850	2062.000000	0
3.3860	2067.000000	0
3.3870	2072.000000	0
3.3880	2077.000000	0
3.3890	2080.000000	0
3.3900	2081.000000	0
3.3910	2082.000000	0
3.3920	2082.000000	0
3.3930	2080.000000	0
3.3940	2077.000000	0
3.3950	2072.000000	0
3.3960	2067.000000	0
3.3970	2065.000000	0
3.3980	2062.000000	0
3.3990	2061.000000	0
3.4000	2061.000000	0
3.4010	2061.000000	0
3.4020	2063.000000	0
3.4030	2068.000000	0
3.4040	2073.000000	0
3.4050	2078.000000	0
3.4060	2082.000000	0
3.4070	2088.000000	0
3.4080	2092.000000	0
3.4090	2096.000000	0
3.4100	2096.000000	0
3.4110	2096.000000	0
3.4120	2096.000000	0
3.4130	2093.000000	0
3.4140	2090.000000	0
3.4150	2085.000000	0
3.4160	2082.000000	0
3.4170	2079.000000	0
3.4180	2078.000000	0
3.4190	2077.000000	0
3.4200	2076.000000	0
3.4210	2076.000000	0
3.4220	2079.000000	0
3.4230	2083.000000	0
3.4240	2087.000000	0
3.4250	2092.000000	0
3.4260	2096.000000	0
3.4270	2102.000000	0
3.4280	2106.000000	0
3.4290	2108.000000	0
3.4300	2108.000000	0
3.4310	2107.000000	0
3.4320	2108.000000	0
3.4330	2105.000000	0
3.4340	2102.000000	0
3.4350	2097.000000	0
3.4360	2092.000000	0
3.4370	2090.000000	0
3.4380	2086.000000	0
3.4390	2086.000000	0
3.4400	2084.000000	0
3.4410	2083.000000	0
3.4420	2084.000000	0
3.4430	2086.000000	0
3.4440	2091.000000	0
3.4450	2094.000000	0
3.4460	2099.000000	0
3.4470	2103.000000	0
3.4480	2107.000000	0
3.4490	2108.000000	0
3.4500	2108.000000	0
3.4510	2107.000000	0
3.4520	2106.000000	0
3.4530	2103.000000	0
3.4540	2097.000000	0
3.4550	2089.000000	0
3.4560	2083.000000	0
3.4570	2080.000000	0
3.4580	2077.000000	0
3.4590	2074.000000	0
3.4600	2072.000000	0
3.4610	2069.000000	0
3.4620	2068.000000	0
3.4630	2070.000000	0
3.4640	2073.000000	0
3.4650	2075.000000	0
3.4660	2078.000000	0
3.4670	2082.000000	0
3.4680	2083.000000	0
3.4690	2086.000000	0
3.4700	2084.000000	0
3.4710	2082.000000	0
3.4720	2079.000000	0
3.4730	2075.000000	0
3.4740	2069.000000	0
3.4750	2061.000000	0
3.4760	2054.000000	0
3.4770	2049.000000	0
3.4780	2045.000000	0
3.4790	2041.000000	0
3.4800	2038.000000	0
3.4810	2033.000000	0
3.4820	2035.000000	0
3.4830	2036.000000	0
3.4840	2039.000000	0
3.4850	2041.000000	0
3.4860	2045.000000	0
3.4870	2048.000000	0
3.4880	2050.000000	0
3.4890	2051.000000	0
3.4900	2050.000000	0
3.4910	2048.000000	0
3.4920	2045.000000	0
3.4930	2042.000000	0
3.4940	2036.000000	0
3.4950	2030.000000	0
3.4960	2023.000000	0
3.4970	2020.000000	0
3.4980	2015.000000	0
3.4990	2012.000000	0
3.5000	2009.000000	0
3.5010	2007.000000	0
3.5020	2008.000000	0
3.5030	2011.000000	0
3.5040	2013.000000	0
3.5050	2017.000000	0
3.5060	2021.000000	0
3.5070	2026.000000	0
3.5080	2028.000000	0
3.5090	2029.000000	0
3.5100	2029.000000	0
3.5110	2028.000000	0
3.5120	2027.000000	0
3.5130	2023.000000	0
3.5140	2018.000000	0
3.5150	2012.000000	0
3.5160	2007.000000	0
3.5170	2005.000000	0
3.5180	2001.000000	0
3.5190	1999.000000	0
3.5200	1997.000000	0
3.5210	1996.000000	0
3.5220	1998.000000	0
3.5230	2000.000000	0
3.5240	2004.000000	0
3.5250	2008.000000	0
3.5260	2012.000000	0
3.5270	2017.000000	0
3.5280	2021.000000	0
3.5290	2022.000000	0
3.5300	2022.000000	0
3.5310	2023.000000	0
3.5320	2023.000000	0
3.5330	2019.000000	0
3.5340	2016.000000	0
3.5350	2011.000000	0
3.5360	2006.000000	0
3.5370	2004.000000	0
3.5380	2001.000000	0
3.5390	1999.000000	0
3.5400	1998.000000	0
3.5410	1997.000000	0
3.5420	2001.000000	0
3.5430	2004.000000	0
3.5440	2008.000000	0
3.5450	2011.000000	0
3.5460	2015.000000	0
3.5470	2020.000000	0
3.5480	2023.000000	0
3.5490	2025.000000	0
3.5500	2027.000000	0
3.5510	2025.000000	0
3.5520	2025.000000	0
3.5530	2022.000000	0
3.5540	2018.000000	0
3.5550	2012.000000	0
3.5560	2008.000000	0
3.5570	2005.000000	0
3.5580	2003.000000	0
3.5590	2003.000000	0
3.5600	2001.000000	0
3.5610	2000.000000	0
3.5620	2003.000000	0
3.5630	2005.000000	0
3.5640	2008.000000	0
3.5650	2013.000000	0
3.5660	2017.000000	0
3.5670	2024.000000	0
3.5680	2026.000000	0
3.5690	2028.000000	0
3.5700	2028.000000	0
3.5710	2028.000000	0
3.5720	2029.000000	0
3.5730	2026.000000	0
3.5740	2023.000000	0
3.5750	2017.000000	0
3.5760	2012.000000	0
3.5770	2010.000000	0
3.5780	2008.000000	0
3.5790	2006.000000	0
3.5800	2005.000000	0
3.5810	2004.000000	0
3.5820	2006.000000	0
3.5830	2010.000000	0
3.5840	2014.000000	0
3.5850	2017.000000	0
3.5860	2022.000000	0
3.5870	2028.000000	0
3.5880	2032.000000	0
3.5890	2034.000000	0
3.5900	2033.000000	0
3.5910	2034.000000	0
3.5920	2035.000000	0
3.5930	2033.000000	0
3.5940	2029.000000	0
3.5950	2022.000000	0
3.5960	2017.000000	0
3.5970	2015.000000	0
3.5980	2012.000000	0
3.5990	2012.000000	0
3.6000	2011.000000	0
3.6010	2010.000000	0
3.6020	2012.000000	0
3.6030	2014.000000	0
3.6040	2019.000000	0
3.6050	2023.000000	0
3.6060	2028.000000	0
3.6070	2034.000000	0
3.6080	2035.000000	0
3.6090	2038.000000	0
3.6100	2037.000000	0
3.6110	2038.000000	0
3.6120	2038.000000	0
3.6130	2035.000000	0
3.6140	2032.000000	0
3.6150	2026.000000	0
3.6160	2021.000000	0
3.6170	2019.000000	0
3.6180	2016.000000	0
3.6190	2014.000000	0
3.6200	2012.000000	0
3.6210	2013.000000	0
3.6220	2016.000000	0
3.6230	2018.000000	0
3.6240	2023.000000	0
3.6250	2027.000000	0
3.6260	2031.000000	0
3.6270	2036.000000	0
3.6280	2039.000000	0
3.6290	2042.000000	0
3.6300	2041.000000	0
3.6310	2042.000000	0
3.6320	2043.000000	0
3.6330	2040.000000	0
3.6340	2036.000000	0
3.6350	2030.000000	0
3.6360	2027.000000	0
3.6370	2024.000000	0
3.6380	2021.000000	0
3.6390	2020.000000	0
3.6400	2020.000000	0
3.6410	2019.000000	0
3.6420	2020.000000	0
3.6430	2022.000000	0
3.6440	2025.000000	0
3.6450	2028.000000	0
3.6460	2034.000000	0
3.6470	2039.000000	0
3.6480	2042.000000	0
3.6490	2045.000000	0
3.6500	2044.000000	0
3.6510	2044.000000	0
3.6520	2046.000000	0
3.6530	2043.000000	0
3.6540	2040.000000	0
3.6550	2033.000000	0
3.6560	2028.000000	0
3.6570	2026.000000	0
3.6580	2022.000000	0
3.6590	2021.000000	0
3.6600	2020.000000	0
3.6610	2019.000000	0
3.6620	2022.000000	0
3.6630	2024.000000	0
3.6640	2028.000000	0
3.6650	2031.000000	0
3.6660	2036.000000	0
3.6670	2040.000000	0
3.6680	2044.000000	0
3.6690	2046.000000	0
3.6700	2047.000000	0
3.6710	2047.000000	0
3.6720	2048.000000	0
3.6730	2044.000000	0
3.6740	2041.000000	0
3.6750	2035.000000	0
3.6760	2030.000000	0
3.6770	2028.000000	0
3.6780	2026.000000	0
3.6790	2026.000000	0
3.6800	2024.000000	0
3.6810	2024.000000	0
3.6820	2025.000000	0
3.6830	2028.000000	0
3.6840	2031.000000	0
3.6850	2034.000000	0
3.6860	2039.000000	0
3.6870	2045.000000	0
3.6880	2047.000000	0
3.6890	2049.000000	0
3.6900	2050.000000	0
3.6910	2050.000000	0
3.6920	2051.000000	0
3.6930	2049.000000	0
3.6940	2045.000000	0
3.6950	2039.000000	0
3.6960	2035.000000	0
3.6970	2032.000000	0
3.6980	2030.000000	0
3.6990	2028.000000	0
3.7000	2026.000000	0
3.7010	2026.000000	0
3.7020	2028.000000	0
3.7030	2030.000000	0
3.7040	2034.000000	0
3.7050	2037.000000	0
3.7060	2042.000000	0
3.7070	2047.000000	0
3.7080	2051.000000	0
3.7090	2053.000000	0
3.7100	2054.000000	0
3.7110	2053.000000	0
3.7120	2054.000000	0
3.7130	2052.000000	0
3.7140	2047.000000	0
3.7150	2042.000000	0
3.7160	2036.000000	0
3.7170	2035.000000	0
3.7180	2032.000000	0
3.7190	2030.000000	0
3.7200	2028.000000	0
3.7210	2027.000000	0
3.7220	2030.000000	0
3.7230	2031.000000	0
3.7240	2033.000000	0
3.7250	2037.000000	0
3.7260	2043.000000	0
3.7270	2049.000000	0
3.7280	2052.000000	0
3.7290	2055.000000	0
3.7300	2055.000000	0
3.7310	2054.000000	0
3.7320	2055.000000	0
3.7330	2052.000000	0
3.7340	2048.000000	0
3.7350	2042.000000	0
3.7360	2038.000000	0
3.7370	2035.000000	0
3.7380	2032.000000	0
3.7390	2030.000000	0
3.7400	2029.000000	0
3.7410	2027.000000	0
3.7420	2029.000000	0
3.7430	2032.000000	0
3.7440	2036.000000	0
3.7450	2039.000000	0
3.7460	2043.000000	0
3.7470	2047.000000	0
3.7480	2051.000000	0
3.7490	2053.000000	0
3.7500	2053.000000	0
3.7510	2054.000000	0
3.7520	2053.000000	0
3.7530	2051.000000	0
3.7540	2046.000000	0
3.7550	2040.000000	0
3.7560	2036.000000	0
3.7570	2035.000000	0
3.7580	2031.000000	0
3.7590	2030.000000	0
3.7600	2029.000000	0
3.7610	2029.000000	0
3.7620	2031.000000	0
3.7630	2034.000000	0
3.7640	2038.000000	0
3.7650	2042.000000	0
3.7660	2045.000000	0
3.7670	2053.000000	0
3.7680	2055.000000	0
3.7690	2057.000000	0
3.7700	2057.000000	0
3.7710	2056.000000	0
3.7720	2058.000000	0
3.7730	2054.000000	0
3.7740	2051.000000	0
3.7750	2045.000000	0
3.7760	2041.000000	0
3.7770	2040.000000	0
3.7780	2037.000000	0
3.7790	2036.000000	0
3.7800	2034.000000	0
3.7810	2034.000000	0
3.7820	2036.000000	0
3.7830	2038.000000	0
3.7840	2041.000000	0
3.7850	2045.000000	0
3.7860	2048.000000	0
3.7870	2055.000000	0
3.7880	2058.000000	0
3.7890	2058.000000	0
3.7900	2058.000000	0
3.7910	2057.000000	0
3.7920	2057.000000	0
3.7930	2056.000000	0
3.7940	2054.000000	0
3.7950	2049.000000	0
3.7960	2042.000000	0
3.7970	2040.000000	0
3.7980	2038.000000	0
3.7990	2038.000000	0
3.8000	2036.000000	0
3.8010	2035.000000	0
3.8020	2035.000000	0
3.8030	2037.000000	0
3.8040	2042.000000	0
3.8050	2045.000000	0
3.8060	2051.000000	0
3.8070	2055.000000	0
3.8080	2060.000000	0
3.8090	2061.000000	0
3.8100	2062.000000	0
3.8110	2061.000000	0
3.8120	2062.000000	0
3.8130	2058.000000	0
3.8140	2055.000000	0
3.8150	2051.000000	0
3.8160	2046.000000	0
3.8170	2044.000000	0
3.8180	2041.000000	0
3.8190	2039.000000	0
3.8200	2038.000000	0
3.8210	2036.000000	0
3.8220	2038.000000	0
3.8230	2040.000000	0
3.8240	2043.000000	0
3.8250	2047.000000	0
3.8260	2051.000000	0
3.8270	2056.000000	0
3.8280	2059.000000	0
3.8290	2060.000000	0
3.8300	2062.000000	0
3.8310	2061.000000	0
3.8320	2062.000000	0
3.8330	2059.000000	0
3.8340	2057.000000	0
3.8350	2052.000000	0
3.8360	2046.000000	0
3.8370	2044.000000	0
3.8380	2042.000000	0
3.8390	2040.000000	0
3.8400	2038.000000	0
3.8410	2038.000000	0
3.8420	2040.000000	0
3.8430	2041.000000	0
3.8440	2045.000000	0
3.8450	2049.000000	0
3.8460	2054.000000	0
3.8470	2059.000000	0
3.8480	2062.000000	0
3.8490	2063.000000	0
3.8500	2063.000000	0
3.8510	2065.000000	0
3.8520	2065.000000	0
3.8530	2061.000000	0
3.8540	2058.000000	0
3.8550	2053.000000	0
3.8560	2049.000000	0
3.8570	2046.000000	0
3.8580	2043.000000	0
3.8590	2041.000000	0
3.8600	2039.000000	0
3.8610	2038.000000	0
3.8620	2039.000000	0
3.8630	2041.000000	0
3.8640	2044.000000	0
3.8650	2048.000000	0
3.8660	2051.000000	0
3.8670	2056.000000	0
3.8680	2058.000000	0
3.8690	2059.000000	0
3.8700	2059.000000	0
3.8710	2060.000000	0
3.8720	2062.000000	0
3.8730	2058.000000	0
3.8740	2056.000000	0
3.8750	2052.000000	0
3.8760	2049.000000	0
3.8770	2046.000000	0
3.8780	2044.000000	0
3.8790	2040.000000	0
3.8800	2039.000000	0
3.8810	2039.000000	0
3.8820	2040.000000	0
3.8830	2041.000000	0
3.8840	2043.000000	0
3.8850	2047.000000	0
3.8860	2052.000000	0
3.8870	2058.000000	0
3.8880	2060.000000	0
3.8890	2061.000000	0
3.8900	2062.000000	0
3.8910	2063.000000	0
3.8920	2064.000000	0
3.8930	2060.000000	0
3.8940	2056.000000	0
3.8950	2052.000000	0
3.8960	2048.000000	0
3.8970	2045.000000	0
3.8980	2041.000000	0
3.8990	2038.000000	0
3.9000	2036.000000	0
3.9010	2034.000000	0
3.9020	2037.000000	0
3.9030	2038.000000	0
3.9040	2041.000000	0
3.9050	2045.000000	0
3.9060	2051.000000	0
3.9070	2055.000000	0
3.9080	2059.000000	0
3.9090	2061.000000	0
3.9100	2062.000000	0
3.9110	2062.000000	0
3.9120	2061.000000	0
3.9130	2060.000000	0
3.9140	2057.000000	0
3.9150	2053.000000	0
3.9160	2048.000000	0
3.9170	2046.000000	0
3.9180	2041.000000	0
3.9190	2039.000000	0
3.9200	2037.000000	0
3.9210	2038.000000	0
3.9220	2040.000000	0
3.9230	2041.000000	0
3.9240	2043.000000	0
3.9250	2048.000000	0
3.9260	2052.000000	0
3.9270	2057.000000	0
3.9280	2061.000000	0
3.9290	2063.000000	0
3.9300	2063.000000	0
3.9310	2065.000000	0
3.9320	2066.000000	0
3.9330	2066.000000	0
3.9340	2062.000000	0
3.9350	2057.000000	0
3.9360	2052.000000	0
3.9370	2048.000000	0
3.9380	2047.000000	0
3.9390	2044.000000	0
3.9400	2042.000000	0
3.9410	2041.000000	0
3.9420	2042.000000	0
3.9430	2043.000000	0
3.9440	2046.000000	0
3.9450	2050.000000	0
3.9460	2056.000000	0
3.9470	2060.000000	0
3.9480	2063.000000	0
3.9490	2065.000000	0
3.9500	2065.000000	0
3.9510	2066.000000	0
3.9520	2066.000000	0
3.9530	2065.000000	0
3.9540	2062.000000	0
3.9550	2056.000000	0
3.9560	2052.000000	0
3.9570	2050.000000	0
3.9580	2046.000000	0
3.9590	2044.000000	0
3.9600	2043.000000	0
3.9610	2042.000000	0
3.9620	2043.000000	0
3.9630	2044.000000	0
3.9640	2045.000000	0
3.9650	2050.000000	0
3.9660	2056.000000	0
3.9670	2060.000000	0
3.9680	2064.000000	0
3.9690	2066.000000	0
3.9700	2066.000000	0
3.9710	2067.000000	0
3.9720	2067.000000	0
3.9730	2066.000000	0
3.9740	2062.000000	0
3.9750	2057.000000	0
3.9760	2053.000000	0
3.9770	2050.000000	0
3.9780	2047.000000	0
3.9790	2044.000000	0
3.9800	2043.000000	0
3.9810	2042.000000	0
3.9820	2043.000000	0
3.9830	2045.000000	0
3.9840	2047.000000	0
3.9850	2051.000000	0
3.9860	2056.000000	0
3.9870	2060.000000	0
3.9880	2064.000000	0
3.9890	2065.000000	0
3.9900	2067.000000	0
3.9910	2067.000000	0
3.9920	2069.000000	0
3.9930	2067.000000	0
3.9940	2064.000000	0
3.9950	2059.000000	0
3.9960	2056.000000	0
3.9970	2052.000000	0
3.9980	2049.000000	0
3.9990	2046.000000	0
4.0000	2044.000000	0
4.0010	2044.000000	0
4.0020	2044.000000	0
4.0030	2045.000000	0
4.0040	2046.000000	0
4.0050	2050.000000	0
4.0060	2055.000000	0
4.0070	2058.000000	0
4.0080	2062.000000	0
4.0090	2063.000000	0
4.0100	2064.000000	0
4.0110	2065.000000	0
4.0120	2064.000000	0
4.0130	2064.000000	0
4.0140	2060.000000	0
4.0150	2056.000000	0
4.0160	2052.000000	0
4.0170	2048.000000	0
4.0180	2046.000000	0
4.0190	2044.000000	0
4.0200	2043.000000	0
4.0210	2042.000000	0
4.0220	2044.000000	0
4.0230	2045.000000	0
4.0240	2048.000000	0
4.0250	2052.000000	0
4.0260	2059.000000	0
4.0270	2065.000000	0
4.0280	2069.000000	0
4.0290	2070.000000	0
4.0300	2072.000000	0
4.0310	2074.000000	0
4.0320	2074.000000	0
4.0330	2073.000000	0
4.0340	2069.000000	0
4.0350	2065.000000	0
4.0360	2061.000000	0
4.0370	2058.000000	0
4.0380	2057.000000	0
4.0390	2054.000000	0
4.0400	2053.000000	0
4.0410	2054.000000	0
4.0420	2054.000000	0
4.0430	2055.000000	0
4.0440	2057.000000	0
4.0450	2062.000000	0
4.0460	2066.000000	0
4.0470	2069.000000	0
4.0480	2074.000000	0
4.0490	2075.000000	0
4.0500	2076.000000	0
4.0510	2078.000000	0
4.0520	2078.000000	0
4.0530	2077.000000	0
4.0540	2072.000000	0
4.0550	2068.000000	0
4.0560	2062.000000	0
4.0570	2060.000000	0
4.0580	2056.000000	0
4.0590	2053.000000	0
4.0600	2051.000000	0
4.0610	2049.000000	0
4.0620	2049.000000	0
4.0630	2049.000000	0
4.0640	2051.000000	0
4.0650	2054.000000	0
4.0660	2059.000000	0
4.0670	2063.000000	0
4.0680	2065.000000	0
4.0690	2067.000000	0
4.0700	2068.000000	0
4.0710	2070.000000	0
4.0720	2070.000000	0
4.0730	2069.000000	0
4.0740	2064.000000	0
4.0750	2060.000000	0
4.0760	2056.000000	0
4.0770	2052.000000	0
4.0780	2050.000000	0
4.0790	2046.000000	0
4.0800	2045.000000	0
4.0810	2045.000000	0
4.0820	2045.000000	0
4.0830	2049.000000	0
4.0840	2051.000000	0
4.0850	2054.000000	0
4.0860	2058.000000	0
4.0870	2062.000000	0
4.0880	2065.000000	0
4.0890	2065.000000	0
4.0900	2067.000000	0
4.0910	2068.000000	0
4.0920	2069.000000	0
4.0930	2067.000000	0
4.0940	2065.000000	0
4.0950	2060.000000	0
4.0960	2057.000000	0
4.0970	2053.000000	0
4.0980	2051.000000	0
4.0990	2048.000000	0
4.1000	2047.000000	0
4.1010	2046.000000	0
4.1020	2047.000000	0
4.1030	2048.000000	0
4.1040	2051.000000	0
4.1050	2054.000000	0
4.1060	2059.000000	0
4.1070	2063.000000	0
4.1080	2066.000000	0
4.1090	2068.000000	0
4.1100	2068.000000	0
4.1110	2069.000000	0
4.1120	2070.000000	0
4.1130	2068.000000	0
4.1140	2066.000000	0
4.1150	2062.000000	0
4.1160	2059.000000	0
4.1170	2055.000000	0
4.1180	2052.000000	0
4.1190	2050.000000	0
4.1200	2048.000000	0
4.1210	2048.000000	0
4.1220	2045.000000	0
4.1230	2048.000000	0
4.1240	2050.000000	0
4.1250	2052.000000	0
4.1260	2057.000000	0
4.1270	2062.000000	0
4.1280	2065.000000	0
4.1290	2067.000000	0
4.1300	2067.000000	0
4.1310	2068.000000	0
4.1320	2070.000000	0
4.1330	2069.000000	0
4.1340	2066.000000	0
4.1350	2061.000000	0
4.1360	2058.000000	0
4.1370	2053.000000	0
4.1380	2052.000000	0
4.1390	2049.000000	0
4.1400	2049.000000	0
4.1410	2048.000000	0
4.1420	2048.000000	0
4.1430	2049.000000	0
4.1440	2051.000000	0
4.1450	2054.000000	0
4.1460	2060.000000	0
4.1470	2063.000000	0
4.1480	2067.000000	0
4.1490	2069.000000	0
4.1500	2070.000000	0
4.1510	2071.000000	0
4.1520	2072.000000	0
4.1530	2071.000000	0
4.1540	2068.000000	0
4.1550	2063.000000	0
4.1560	2060.000000	0
4.1570	2056.000000	0
4.1580	2053.000000	0
4.1590	2051.000000	0
4.1600	2049.000000	0
4.1610	2049.000000	0
4.1620	2048.000000	0
4.1630	2048.000000	0
4.1640	2050.000000	0
4.1650	2053.000000	0
4.1660	2056.000000	0
4.1670	2060.000000	0
4.1680	2061.000000	0
4.1690	2061.000000	0
4.1700	2059.000000	0
4.1710	2057.000000	0
4.1720	2053.000000	0
4.1730	2046.000000	0
4.1740	2037.000000	0
4.1750	2029.000000	0
4.1760	2022.000000	0
4.1770	2016.000000	0
4.1780	2012.000000	0
4.1790	2010.000000	0
4.1800	2009.000000	0
4.1810	2009.000000	0
4.1820	2012.000000	0
4.1830	2016.000000	0
4.1840	2021.000000	0
4.1850	2028.000000	0
4.1860	2038.000000	0
4.1870	2045.000000	0
4.1880	2053.000000	0
4.1890	2057.000000	0
4.1900	2062.000000	0
4.1910	2069.000000	0
4.1920	2079.000000	0
4.1930	2092.000000	0
4.1940	2108.000000	0
4.1950	2131.000000	0
4.1960	2159.000000	0
4.1970	2189.000000	0
4.1980	2220.000000	0
4.1990	2250.000000	0
4.2000	2278.000000	0
4.2010	2305.000000	0
4.2020	2327.000000	0
4.2030	2350.000000	0
4.2040	2370.000000	0
4.2050	2387.000000	0
4.2060	2403.000000	0
4.2070	2420.000000	0
4.2080	2434.000000	0
4.2090	2447.000000	0
4.2100	2458.000000	0
4.2110	2467.000000	1
4.2120	2473.000000	0
4.2130	2473.000000	0
4.2140	2468.000000	0
4.2150	2455.000000	0
4.2160	2438.000000	0
4.2170	2416.000000	0
4.2180	2388.000000	0
4.2190	2354.000000	0
4.2200	2316.000000	0
4.2210	2275.000000	0
4.2220	2235.000000	0
4.2230	2196.000000	0
4.2240	2162.000000	0
4.2250	2134.000000	0
4.2260	2115.000000	0
4.2270	2103.000000	0
4.2280	2097.000000	0
4.2290	2091.000000	0
4.2300	2086.000000	0
4.2310	2083.000000	0
4.2320	2080.000000	0
4.2330	2076.000000	0
4.2340	2071.000000	0
4.2350	2065.000000	0
4.2360	2058.000000	0
4.2370	2053.000000	0
4.2380	2046.000000	0
4.2390	2042.000000	0
4.2400	2037.000000	0
4.2410	2033.000000	0
4.2420	2032.000000	0
4.2430	2031.000000	0
4.2440	2030.000000	0
4.2450	2033.000000	0
4.2460	2036.000000	0
4.2470	2039.000000	0
4.2480	2041.000000	0
4.2490	2041.000000	0
4.2500	2040.000000	0
4.2510	2040.000000	0
4.2520	2040.000000	0
4.2530	2037.000000	0
4.2540	2034.000000	0
4.2550	2030.000000	0
4.2560	2026.000000	0
4.2570	2022.000000	0
4.2580	2018.000000	0
4.2590	2015.000000	0
4.2600	2012.000000	0
4.2610	2010.000000	0
4.2620	2008.000000	0
4.2630	2009.000000	0
4.2640	2010.000000	0
4.2650	2013.000000	0
4.2660	2018.000000	0
4.2670	2022.000000	0
4.2680	2026.000000	0
4.2690	2027.000000	0
4.2700	2030.000000	0
4.2710	2031.000000	0
4.2720	2032.000000	0
4.2730	2031.000000	0
4.2740	2028.000000	0
4.2750	2024.000000	0
4.2760	2019.000000	0
4.2770	2017.000000	0
4.2780	2015.000000	0
4.2790	2012.000000	0
4.2800	2009.000000	0
4.2810	2010.000000	0
4.2820	2010.000000	0
4.2830	2009.000000	0
4.2840	2011.000000	0
4.2850	2014.000000	0
4.2860	2020.000000	0
4.2870	2025.000000	0
4.2880	2028.000000	0
4.2890	2029.000000	0
4.2900	2030.000000	0
4.2910	2031.000000	0
4.2920	2034.000000	0
4.2930	2034.000000	0
4.2940	2031.000000	0
4.2950	2028.000000	0
4.2960	2025.000000	0
4.2970	2022.000000	0
4.2980	2018.000000	0
4.2990	2016.000000	0
4.3000	2014.000000	0
4.3010	2014.000000	0
4.3020	2014.000000	0
4.3030	2015.000000	0
4.3040	2017.000000	0
4.3050	2021.000000	0
4.3060	2027.000000	0
4.3070	2032.000000	0
4.3080	2036.000000	0
4.3090	2037.000000	0
4.3100	2036.000000	0
4.3110	2039.000000	0
4.3120	2041.000000	0
4.3130	2040.000000	0
4.3140	2037.000000	0
4.3150	2033.000000	0
4.3160	2030.000000	0
4.3170	2026.000000	0
4.3180	2024.000000	0
4.3190	2023.000000	0
4.3200	2021.000000	0
4.3210	2019.000000	0
4.3220	2019.000000	0
4.3230	2021.000000	0
4.3240	2024.000000	0
4.3250	2028.000000	0
4.3260	2034.000000	0
4.3270	2038.000000	0
4.3280	2042.000000	0
4.3290	2044.000000	0
4.3300	2045.000000	0
4.3310	2046.000000	0
4.3320	2048.000000	0
4.3330	2047.000000	0
4.3340	2044.000000	0
4.3350	2041.000000	0
4.3360	2038.000000	0
4.3370	2035.000000	0
4.3380	2032.000000	0
4.3390	2030.000000	0
4.3400	2028.000000	0
4.3410	2028.000000	0
4.3420	2028.000000	0
4.3430	2029.000000	0
4.3440	2031.000000	0
4.3450	2035.000000	0
4.3460	2040.000000	0
4.3470	2045.000000	0
4.3480	2050.000000	0
4.3490	2052.000000	0
4.3500	2055.000000	0
4.3510	2057.000000	0
4.3520	2057.000000	0
4.3530	2058.000000	0
4.3540	2055.000000	0
4.3550	2051.000000	0
4.3560	2048.000000	0
4.3570	2043.000000	0
4.3580	2040.000000	0
4.3590	2038.000000	0
4.3600	2035.000000	0
4.3610	2037.000000	0
4.3620	2037.000000	0
4.3630	2039.000000	0
4.3640	2041.000000	0
4.3650	2045.000000	0
4.3660	2051.000000	0
4.3670	2055.000000	0
4.3680	2060.000000	0
4.3690	2061.000000	0
4.3700	2063.000000	0
4.3710	2065.000000	0
4.3720	2067.000000	0
4.3730	2066.000000	0
4.3740	2064.000000	0
4.3750	2061.000000	0
4.3760	2059.000000	0
4.3770	2055.000000	0
4.3780	2053.000000	0
4.3790	2050.000000	0
4.3800	2049.000000	0
4.3810	2049.000000	0
4.3820	2049.000000	0
4.3830	2050.000000	0
4.3840	2051.000000	0
4.3850	2056.000000	0
4.3860	2061.000000	0
4.3870	2067.000000	0
4.3880	2070.000000	0
4.3890	2073.000000	0
4.3900	2073.000000	0
4.3910	2075.000000	0
4.3920	2077.000000	0
4.3930	2075.000000	0
4.3940	2072.000000	0
4.3950	2068.000000	0
4.3960	2066.000000	0
4.3970	2063.000000	0
4.3980	2061.000000	0
4.3990	2059.000000	0
4.4000	2058.000000	0
4.4010	2059.000000	0
4.4020	2059.000000	0
4.4030	2060.000000	0
4.4040	2062.000000	0
4.4050	2067.000000	0
4.4060	2073.000000	0
4.4070	2077.000000	0
4.4080	2082.000000	0
4.4090	2085.000000	0
4.4100	2086.000000	0
4.4110	2089.000000	0
4.4120	2090.000000	0
4.4130	2090.000000	0
4.4140	2087.000000	0
4.4150	2084.000000	0
4.4160	2083.000000	0
4.4170	2081.000000	0
4.4180	2079.000000	0
4.4190	2076.000000	0
4.4200	2076.000000	0
4.4210	2077.000000	0
4.4220	2076.000000	0
4.4230	2079.000000	0
4.4240	2081.000000	0
4.4250	2086.000000	0
4.4260	2092.000000	0
4.4270	2097.000000	0
4.4280	2101.000000	0
4.4290	2103.000000	0
4.4300	2106.000000	0
4.4310	2109.000000	0
4.4320	2109.000000	0
4.4330	2108.000000	0
4.4340	2105.000000	0
4.4350	2102.000000	0
4.4360	2100.000000	0
4.4370	2097.000000	0
4.4380	2095.000000	0
4.4390	2092.000000	0
4.4400	2090.000000	0
4.4410	2090.000000	0
4.4420	2091.000000	0
4.4430	2092.000000	0
4.4440	2094.000000	0
4.4450	2098.000000	0
4.4460	2103.000000	0
4.4470	2108.000000	0
4.4480	2113.000000	0
4.4490	2115.000000	0
4.4500	2116.000000	0
4.4510	2117.000000	0
4.4520	2118.000000	0
4.4530	2119.000000	0
4.4540	2115.000000	0
4.4550	2112.000000	0
4.4560	2109.000000	0
4.4570	2105.000000	0
4.4580	2103.000000	0
4.4590	2100.000000	0
4.4600	2099.000000	0
4.4610	2099.000000	0
4.4620	2099.000000	0
4.4630	2100.000000	0
4.4640	2100.000000	0
4.4650	2103.000000	0
4.4660	2108.000000	0
4.4670	2111.000000	0
4.4680	2113.000000	0
4.4690	2114.000000	0
4.4700	2116.000000	0
4.4710	2116.000000	0
4.4720	2115.000000	0
4.4730	2113.000000	0
4.4740	2108.000000	0
4.4750	2104.000000	0
4.4760	2099.000000	0
4.4770	2094.000000	0
4.4780	2089.000000	0
4.4790	2085.000000	0
4.4800	2082.000000	0
4.4810	2079.000000	0
4.4820	2078.000000	0
4.4830	2076.000000	0
4.4840	2076.000000	0
4.4850	2078.000000	0
4.4860	2082.000000	0
4.4870	2083.000000	0
4.4880	2084.000000	0
4.4890	2084.000000	0
4.4900	2083.000000	0
4.4910	2082.000000	0
4.4920	2081.000000	0
4.4930	2078.000000	0
4.4940	2070.000000	0
4.4950	2066.000000	0
4.4960	2060.000000	0
4.4970	2056.000000	0
4.4980	2052.000000	0
4.4990	2048.000000	0
4.5000	2044.000000	0
4.5010	2041.000000	0
4.5020	2037.000000	0
4.5030	2035.000000	0
4.5040	2037.000000	0
4.5050	2037.000000	0
4.5060	2039.000000	0
4.5070	2043.000000	0
4.5080	2044.000000	0
4.5090	2043.000000	0
4.5100	2041.000000	0
4.5110	2042.000000	0
4.5120	2040.000000	0
4.5130	2039.000000	0
4.5140	2033.000000	0
4.5150	2028.000000	0
4.5160	2023.000000	0
4.5170	2020.000000	0
4.5180	2015.000000	0
4.5190	2011.000000	0
4.5200	2008.000000	0
4.5210	2005.000000	0
4.5220	2003.000000	0
4.5230	2003.000000	0
4.5240	2003.000000	0
4.5250	2007.000000	0
4.5260	2011.000000	0
4.5270	2015.000000	0
4.5280	2017.000000	0
4.5290	2017.000000	0
4.5300	2016.000000	0
4.5310	2018.000000	0
4.5320	2016.000000	0
4.5330	2015.000000	0
4.5340	2011.000000	0
4.5350	2006.000000	0
4.5360	2002.000000	0
4.5370	1999.000000	0
4.5380	1997.000000	0
4.5390	1993.000000	0
4.5400	1990.000000	0
4.5410	1989.000000	0
4.5420	1987.000000	0
4.5430	1988.000000	0
4.5440	1989.000000	0
4.5450	1993.000000	0
4.5460	1998.000000	0
4.5470	2003.000000	0
4.5480	2005.000000	0
4.5490	2008.000000	0
4.5500	2009.000000	0
4.5510	2010.000000	0
4.5520	2012.000000	0
4.5530	2010.000000	0
4.5540	2007.000000	0
4.5550	2003.000000	0
4.5560	1999.000000	0
4.5570	1996.000000	0
4.5580	1994.000000	0
4.5590	1992.000000	0
4.5600	1990.000000	0
4.5610	1989.000000	0
4.5620	1988.000000	0
4.5630	1989.000000	0
4.5640	1991.000000	0
4.5650	1996.000000	0
4.5660	2001.000000	0
4.5670	2005.000000	0
4.5680	2008.000000	0
4.5690	2011.000000	0
4.5700	2010.000000	0
4.5710	2013.000000	0
4.5720	2014.000000	0
4.5730	2012.000000	0
4.5740	2009.000000	0
4.5750	2005.000000	0
4.5760	2001.000000	0
4.5770	1999.000000	0
4.5780	1996.000000	0
4.5790	1993.000000	0
4.5800	1993.000000	0
4.5810	1994.000000	0
4.5820	1994.000000	0
4.5830	1996.000000	0
4.5840	1997.000000	0
4.5850	2000.000000	0
4.5860	2006.000000	0
4.5870	2010.000000	0
4.5880	2013.000000	0
4.5890	2014.000000	0
4.5900	2015.000000	0
4.5910	2017.000000	0
4.5920	2018.000000	0
4.5930	2018.000000	0
4.5940	2014.000000	0
4.5950	2012.000000	0
4.5960	2009.000000	0
4.5970	2004.000000	0
4.5980	2002.000000	0
4.5990	1999.000000	0
4.6000	1999.000000	0
4.6010	1997.000000	0
4.6020	1998.000000	0
4.6030	1999.000000	0
4.6040	2001.000000	0
4.6050	2003.000000	0
4.6060	2011.000000	0
4.6070	2015.000000	0
4.6080	2019.000000	0
4.6090	2022.000000	0
4.6100	2023.000000	0
4.6110	2026.000000	0
4.6120	2024.000000	0
4.6130	2023.000000	0
4.6140	2019.000000	0
4.6150	2016.000000	0
4.6160	2011.000000	0
4.6170	2009.000000	0
4.6180	2008.000000	0
4.6190	2006.000000	0
4.6200	2006.000000	0
4.6210	2005.000000	0
4.6220	2005.000000	0
4.6230	2005.000000	0
4.6240	2009.000000	0
4.6250	2012.000000	0
4.6260	2017.000000	0
4.6270	2022.000000	0
4.6280	2025.000000	0
4.6290	2028.000000	0
4.6300	2028.000000	0
4.6310	2032.000000	0
4.6320	2032.000000	0
4.6330	2031.000000	0
4.6340	2027.000000	0
4.6350	2023.000000	0
4.6360	2021.000000	0
4.6370	2017.000000	0
4.6380	2014.000000	0
4.6390	2013.000000	0
4.6400	2011.000000	0
4.6410	2011.000000	0
4.6420	2010.000000	0
4.6430	2010.000000	0
4.6440	2013.000000	0
4.6450	2017.000000	0
4.6460	2023.000000	0
4.6470	2026.000000	0
4.6480	2030.000000	0
4.6490	2032.000000	0
4.6500	2033.000000	0
4.6510	2035.000000	0
4.6520	2035.000000	0
4.6530	2033.000000	0
4.6540	2029.000000	0
4.6550	2024.000000	0
4.6560	2022.000000	0
4.6570	2019.000000	0
4.6580	2015.000000	0
4.6590	2013.000000	0
4.6600	2011.000000	0
4.6610	2012.000000	0
4.6620	2010.000000	0
4.6630	2011.000000	0
4.6640	2013.000000	0
4.6650	2017.000000	0
4.6660	2022.000000	0
4.6670	2026.000000	0
4.6680	2031.000000	0
4.6690	2033.000000	0
4.6700	2035.000000	0
4.6710	2038.000000	0
4.6720	2038.000000	0
4.6730	2035.000000	0
4.6740	2032.000000	0
4.6750	2029.000000	0
4.6760	2026.000000	0
4.6770	2022.000000	0
4.6780	2019.000000	0
4.6790	2015.000000	0
4.6800	2015.000000	0
4.6810	2014.000000	0
4.6820	2015.000000	0
4.6830	2017.000000	0
4.6840	2017.000000	0
4.6850	2021.000000	0
4.6860	2028.000000	0
4.6870	2032.000000	0
4.6880	2035.000000	0
4.6890	2037.000000	0
4.6900	2038.000000	0
4.6910	2040.000000	0
4.6920	2040.000000	0
4.6930	2038.000000	0
4.6940	2035.000000	0
4.6950	2031.000000	0
4.6960	2027.000000	0
4.6970	2025.000000	0
4.6980	2022.000000	0
4.6990	2020.000000	0
4.7000	2019.000000	0
4.7010	2017.000000	0
4.7020	2018.000000	0
4.7030	2018.000000	0
4.7040	2019.000000	0
4.7050	2025.000000	0
4.7060	2029.000000	0
4.7070	2032.000000	0
4.7080	2034.000000	0
4.7090	2035.000000	0
4.7100	2037.000000	0
4.7110	2040.000000	0
4.7120	2040.000000	0
4.7130	2039.000000	0
4.7140	2036.000000	0
4.7150	2033.000000	0
4.7160	2031.000000	0
4.7170	2027.000000	0
4.7180	2024.000000	0
4.7190	2022.000000	0
4.7200	2022.000000	0
4.7210	2020.000000	0
4.7220	2020.000000	0
4.7230	2021.000000	0
4.7240	2023.000000	0
4.7250	2028.000000	0
4.7260	2033.000000	0
4.7270	2036.000000	0
4.7280	2038.000000	0
4.7290	2040.000000	0
4.7300	2041.000000	0
4.7310	2043.000000	0
4.7320	2043.000000	0
4.7330	2042.000000	0
4.7340	2038.000000	0
4.7350	2035.000000	0
4.7360	2032.000000	0
4.7370	2028.000000	0
4.7380	2025.000000	0
4.7390	2022.000000	0
4.7400	2021.000000	0
4.7410	2021.000000	0
4.7420	2021.000000	0
4.7430	2022.000000	0
4.7440	2024.000000	0
4.7450	2029.000000	0
4.7460	2033.000000	0
4.7470	2038.000000	0
4.7480	2041.000000	0
4.7490	2040.000000	0
4.7500	2044.000000	0
4.7510	2045.000000	0
4.7520	2046.000000	0
4.7530	2044.000000	0
4.7540	2041.000000	0
4.7550	2038.000000	0
4.7560	2035.000000	0
4.7570	2032.000000	0
4.7580	2029.000000	0
4.7590	2027.000000	0
4.7600	2025.000000	0
4.7610	2025.000000	0
4.7620	2025.000000	0
4.7630	2026.000000	0
4.7640	2028.000000	0
4.7650	2032.000000	0
4.7660	2036.000000	0
4.7670	2041.000000	0
4.7680	2043.000000	0
4.7690	2044.000000	0
4.7700	2045.000000	0
4.7710	2048.000000	0
4.7720	2048.000000	0
4.7730	2046.000000	0
4.7740	2043.000000	0
4.7750	2040.000000	0
4.7760	2036.000000	0
4.7770	2031.000000	0
4.7780	2027.000000	0
4.7790	2024.000000	0
4.7800	2024.000000	0
4.7810	2023.000000	0
4.7820	2024.000000	0
4.7830	2025.000000	0
4.7840	2026.000000	0
4.7850	2031.000000	0
4.7860	2037.000000	0
4.7870	2041.000000	0
4.7880	2045.000000	0
4.7890	2046.000000	0
4.7900	2048.000000	0
4.7910	2050.000000	0
4.7920	2049.000000	0
4.7930	2048.000000	0
4.7940	2044.000000	0
4.7950	2041.000000	0
4.7960	2038.000000	0
4.7970	2035.000000	0
4.7980	2031.000000	0
4.7990	2028.000000	0
4.8000	2026.000000	0
4.8010	2025.000000	0
4.8020	2026.000000	0
4.8030	2026.000000	0
4.8040	2029.000000	0
4.8050	2034.000000	0
4.8060	2039.000000	0
4.8070	2044.000000	0
4.8080	2047.000000	0
4.8090	2048.000000	0
4.8100	2049.000000	0
4.8110	2051.000000	0
4.8120	2051.000000	0
4.8130	2049.000000	0
4.8140	2045.000000	0
4.8150	2042.000000	0
4.8160	2038.000000	0
4.8170	2034.000000	0
4.8180	2031.000000	0
4.8190	2028.000000	0
4.8200	2028.000000	0
4.8210	2028.000000	0
4.8220	2027.000000	0
4.8230	2028.000000	0
4.8240	2031.000000	0
4.8250	2036.000000	0
4.8260	2041.000000	0
4.8270	2047.000000	0
4.8280	2051.000000	0
4.8290	2052.000000	0
4.8300	2054.000000	0
4.8310	2056.000000	0
4.8320	2056.000000	0
4.8330	2053.000000	0
4.8340	2049.000000	0
4.8350	2045.000000	0
4.8360	2040.000000	0
4.8370	2037.000000	0
4.8380	2034.000000	0
4.8390	2031.000000	0
4.8400	2030.000000	0
4.8410	2030.000000	0
4.8420	2031.000000	0
4.8430	2032.000000	0
4.8440	2034.000000	0
4.8450	2038.000000	0
4.8460	2043.000000	0
4.8470	2047.000000	0
4.8480	2050.000000	0
4.8490	2052.000000	0
4.8500	2053.000000	0
4.8510	2054.000000	0
4.8520	2054.000000	0
4.8530	2053.000000	0
4.8540	2050.000000	0
4.8550	2045.000000	0
4.8560	2042.000000	0
4.8570	2039.000000	0
4.8580	2035.000000	0
4.8590	2032.000000	0
4.8600	2032.000000	0
4.8610	2032.000000	0
4.8620	2031.000000	0
4.8630	2033.000000	0
4.8640	2034.000000	0
4.8650	2038.000000	0
4.8660	2042.000000	0
4.8670	2048.000000	0
4.8680	2051.000000	0
4.8690	2053.000000	0
4.8700	2054.000000	0
4.8710	2055.000000	0
4.8720	2055.000000	0
4.8730	2053.000000	0
4.8740	2049.000000	0
4.8750	2045.000000	0
4.8760	2041.000000	0
4.8770	2040.000000	0
4.8780	2036.000000	0
4.8790	2034.000000	0
4.8800	2032.000000	0
4.8810	2033.000000	0
4.8820	2033.000000	0
4.8830	2034.000000	0
4.8840	2036.000000	0
4.8850	2040.000000	0
4.8860	2045.000000	0
4.8870	2051.000000	0
4.8880	2054.000000	0
4.8890	2055.000000	0
4.8900	2057.000000	0
4.8910	2059.000000	0
4.8920	2058.000000	0
4.8930	2056.000000	0
4.8940	2054.000000	0
4.8950	2049.000000	0
4.8960	2046.000000	0
4.8970	2043.000000	0
4.8980	2040.000000	0
4.8990	2037.000000	0
4.9000	2037.000000	0
4.9010	2034.000000	0
4.9020	2034.000000	0
4.9030	2035.000000	0
4.9040	2038.000000	0
4.9050	2043.000000	0
4.9060	2048.000000	0
4.9070	2053.000000	0
4.9080	2055.000000	0
4.9090	2057.000000	0
4.9100	2058.000000	0
4.9110	2060.000000	0
4.9120	2060.000000	0
4.9130	2058.000000	0
4.9140	2055.000000	0
4.9150	2051.000000	0
4.9160	2048.000000	0
4.9170	2043.000000	0
4.9180	2042.000000	0
4.9190	2039.000000	0
4.9200	2038.000000	0
4.9210	2039.000000	0
4.9220	2038.000000	0
4.9230	2039.000000	0
4.9240	2041.000000	0
4.9250	2045.000000	0
4.9260	2051.000000	0
4.9270	2054.000000	0
4.9280	2056.000000	0
4.9290	2057.000000	0
4.9300	2059.000000	0
4.9310	2061.000000	0
4.9320	2060.000000	0
4.9330	2057.000000	0
4.9340	2056.000000	0
4.9350	2052.000000	0
4.9360	2049.000000	0
4.9370	2045.000000	0
4.9380	2042.000000	0
4.9390	2039.000000	0
4.9400	2039.000000	0
4.9410	2039.000000	0
4.9420	2038.000000	0
4.9430	2038.000000	0
4.9440	2040.000000	0
4.9450	2044.000000	0
4.9460	2050.000000	0
4.9470	2052.000000	0
4.9480	2055.000000	0
4.9490	2057.000000	0
4.9500	2057.000000	0
4.9510	2060.000000	0
4.9520	2059.000000	0
4.9530	2058.000000	0
4.9540	2054.000000	0
4.9550	2051.000000	0
4.9560	2046.000000	0
4.9570	2043.000000	0
4.9580	2040.000000	0
4.9590	2039.000000	0
4.9600	2038.000000	0
4.9610	2037.000000	0
4.9620	2036.000000	0
4.9630	2038.000000	0
4.9640	2040.000000	0
4.9650	2045.000000	0
4.9660	2050.000000	0
4.9670	2055.000000	0
4.9680	2057.000000	0
4.9690	2060.000000	0
4.9700	2062.000000	0
4.9710	2063.000000	0
4.9720	2062.000000	0
4.9730	2061.000000	0
4.9740	2057.000000	0
4.9750	2054.000000	0
4.9760	2050.000000	0
4.9770	2045.000000	0
4.9780	2041.000000	0
4.9790	2039.000000	0
4.9800	2036.000000	0
4.9810	2037.000000	0
4.9820	2036.000000	0
4.9830	2038.000000	0
4.9840	2039.000000	0
4.9850	2044.000000	0
4.9860	2049.000000	0
4.9870	2052.000000	0
4.9880	2056.000000	0
4.9890	2057.000000	0
4.9900	2058.000000	0
4.9910	2061.000000	0
4.9920	2061.000000	0
4.9930	2059.000000	0
4.9940	2056.000000	0
4.9950	2052.000000	0
4.9960	2048.000000	0
4.9970	2045.000000	0
4.9980	2042.000000	0
4.9990	2040.000000	0
5.0000	2041.000000	0
5.0010	2041.000000	0
5.0020	2041.000000	0
5.0030	2042.000000	0
5.0040	2045.000000	0
5.0050	2050.000000	0
5.0060	2057.000000	0
5.0070	2060.000000	0
5.0080	2064.000000	0
5.0090	2067.000000	0
5.0100	2070.000000	0
5.0110	2070.000000	0
5.0120	2071.000000	0
5.0130	2070.000000	0
5.0140	2066.000000	0
5.0150	2063.000000	0
5.0160	2060.000000	0
5.0170	2057.000000	0
5.0180	2055.000000	0
5.0190	2053.000000	0
5.0200	2052.000000	0
5.0210	2053.000000	0
5.0220	2053.000000	0
5.0230	2055.000000	0
5.0240	2056.000000	0
5.0250	2060.000000	0
5.0260	2065.000000	0
5.0270	2069.000000	0
5.0280	2071.000000	0
5.0290	2072.000000	0
5.0300	2075.000000	0
5.0310	2076.000000	0
5.0320	2076.000000	0
5.0330	2073.000000	0
5.0340	2069.000000	0
5.0350	2065.000000	0
5.0360	2060.000000	0
5.0370	2057.000000	0
5.0380	2054.000000	0
5.0390	2051.000000	0
5.0400	2051.000000	0
5.0410	2049.000000	0
5.0420	2050.000000	0
5.0430	2050.000000	0
5.0440	2053.000000	0
5.0450	2058.000000	0
5.0460	2063.000000	0
5.0470	2065.000000	0
5.0480	2068.000000	0
5.0490	2068.000000	0
5.0500	2070.000000	0
5.0510	2070.000000	0
5.0520	2069.000000	0
5.0530	2066.000000	0
5.0540	2061.000000	0
5.0550	2059.000000	0
5.0560	2056.000000	0
5.0570	2052.000000	0
5.0580	2049.000000	0
5.0590	2047.000000	0
5.0600	2045.000000	0
5.0610	2044.000000	0
5.0620	2045.000000	0
5.0630	2046.000000	0
5.0640	2049.000000	0
5.0650	2054.000000	0
5.0660	2059.000000	0
5.0670	2062.000000	0
5.0680	2064.000000	0
5.0690	2066.000000	0
5.0700	2067.000000	0
5.0710	2068.000000	0
5.0720	2068.000000	0
5.0730	2065.000000	0
5.0740	2061.000000	0
5.0750	2059.000000	0
5.0760	2054.000000	0
5.0770	2050.000000	0
5.0780	2046.000000	0
5.0790	2045.000000	0
5.0800	2043.000000	0
5.0810	2043.000000	0
5.0820	2043.000000	0
5.0830	2044.000000	0
5.0840	2046.000000	0
5.0850	2051.000000	0
5.0860	2057.000000	0
5.0870	2062.000000	0
5.0880	2064.000000	0
5.0890	2066.000000	0
5.0900	2067.000000	0
5.0910	2067.000000	0
5.0920	2066.000000	0
5.0930	2064.000000	0
5.0940	2060.000000	0
5.0950	2057.000000	0
5.0960	2054.000000	0
5.0970	2051.000000	0
5.0980	2049.000000	0
5.0990	2045.000000	0
5.1000	2045.000000	0
5.1010	2044.000000	0
5.1020	2044.000000	0
5.1030	2045.000000	0
5.1040	2048.000000	0
5.1050	2054.000000	0
5.1060	2058.000000	0
5.1070	2062.000000	0
5.1080	2064.000000	0
5.1090	2066.000000	0
5.1100	2068.000000	0
5.1110	2070.000000	0
5.1120	2069.000000	0
5.1130	2067.000000	0
5.1140	2062.000000	0
5.1150	2059.000000	0
5.1160	2057.000000	0
5.1170	2052.000000	0
5.1180	2050.000000	0
5.1190	2049.000000	0
5.1200	2047.000000	0
5.1210	2048.000000	0
5.1220	2047.000000	0
5.1230	2048.000000	0
5.1240	2051.000000	0
5.1250	2057.000000	0
5.1260	2060.000000	0
5.1270	2063.000000	0
5.1280	2064.000000	0
5.1290	2066.000000	0
5.1300	2069.000000	0
5.1310	2068.000000	0
5.1320	2069.000000	0
5.1330	2067.000000	0
5.1340	2063.000000	0
5.1350	2060.000000	0
5.1360	2056.000000	0
5.1370	2053.000000	0
5.1380	2049.000000	0
5.1390	2048.000000	0
5.1400	2048.000000	0
5.1410	2044.000000	0
5.1420	2045.000000	0
5.1430	2045.000000	0
5.1440	2045.000000	0
5.1450	2048.000000	0
5.1460	2050.000000	0
5.1470	2051.000000	0
5.1480	2048.000000	0
5.1490	2044.000000	0
5.1500	2041.000000	0
5.1510	2037.000000	0
5.1520	2031.000000	0
5.1530	2026.000000	0
5.1540	2021.000000	0
5.1550	2016.000000	0
5.1560	2012.000000	0
5.1570	2010.000000	0
5.1580	2010.000000	0
5.1590	2010.000000	0
5.1600	2013.000000	0
5.1610	2017.000000	0
5.1620	2020.000000	0
5.1630	2023.000000	0
5.1640	2029.000000	0
5.1650	2036.000000	0
5.1660	2043.000000	0
5.1670	2054.000000	0
5.1680	2066.000000	0
5.1690	2084.000000	0
5.1700	2110.000000	0
5.1710	2137.000000	0
5.1720	2170.000000	0
5.1730	2201.000000	0
5.1740	2230.000000	0
5.1750	2258.000000	0
5.1760	2279.000000	0
5.1770	2299.000000	0
5.1780	2317.000000	0
5.1790	2334.000000	0
5.1800	2349.000000	0
5.1810	2363.000000	0
5.1820	2375.000000	0
5.1830	2389.000000	0
5.1840	2403.000000	0
5.1850	2422.000000	0
5.1860	2440.000000	0
5.1870	2455.000000	0
5.1880	2466.000000	1
5.1890	2474.000000	0
5.1900	2478.000000	0
5.1910	2475.000000	0
5.1920	2466.000000	0
5.1930	2447.000000	0
5.1940	2419.000000	0
5.1950	2388.000000	0
5.1960	2347.000000	0
5.1970	2303.000000	0
5.1980	2261.000000	0
5.1990	2219.000000	0
5.2000	2180.000000	0
5.2010	2143.000000	0
5.2020	2114.000000	0
5.2030	2094.000000	0
5.2040	2082.000000	0
5.2050	2077.000000	0
5.2060	2075.000000	0
5.2070	2073.000000	0
5.2080	2071.000000	0
5.2090	2071.000000	0
5.2100	2071.000000	0
5.2110	2069.000000	0
5.2120	2066.000000	0
5.2130	2061.000000	0
5.2140	2055.000000	0
5.2150	2049.000000	0
5.2160	2044.000000	0
5.2170	2038.000000	0
5.2180	2032.000000	0
5.2190	2028.000000	0
5.2200	2026.000000	0
5.2210	2023.000000	0
5.2220	2022.000000	0
5.2230	2021.000000	0
5.2240	2023.000000	0
5.2250	2027.000000	0
5.2260	2030.000000	0
5.2270	2032.000000	0
5.2280	2033.000000	0
5.2290	2034.000000	0
5.2300	2036.000000	0
5.2310	2035.000000	0
5.2320	2032.000000	0
5.2330	2029.000000	0
5.2340	2025.000000	0
5.2350	2022.000000	0
5.2360	2017.000000	0
5.2370	2013.000000	0
5.2380	2012.000000	0
5.2390	2008.000000	0
5.2400	2008.000000	0
5.2410	2007.000000	0
5.2420	2008.000000	0
5.2430	2009.000000	0
5.2440	2011.000000	0
5.2450	2017.000000	0
5.2460	2020.000000	0
5.2470	2024.000000	0
5.2480	2026.000000	0
5.2490	2026.000000	0
5.2500	2029.000000	0
5.2510	2030.000000	0
5.2520	2029.000000	0
5.2530	2026.000000	0
5.2540	2021.000000	0
5.2550	2019.000000	0
5.2560	2015.000000	0
5.2570	2012.000000	0
5.2580	2009.000000	0
5.2590	2005.000000	0
5.2600	2006.000000	0
5.2610	2007.000000	0
5.2620	2006.000000	0
5.2630	2008.000000	0
5.2640	2012.000000	0
5.2650	2017.000000	0
5.2660	2022.000000	0
5.2670	2026.000000	0
5.2680	2028.000000	0
5.2690	2030.000000	0
5.2700	2032.000000	0
5.2710	2034.000000	0
5.2720	2032.000000	0
5.2730	2028.000000	0
5.2740	2025.000000	0
5.2750	2023.000000	0
5.2760	2019.000000	0
5.2770	2014.000000	0
5.2780	2010.000000	0
5.2790	2007.000000	0
5.2800	2009.000000	0
5.2810	2009.000000	0
5.2820	2010.000000	0
5.2830	2011.000000	0
5.2840	2014.000000	0
5.2850	2020.000000	0
5.2860	2024.000000	0
5.2870	2028.000000	0
5.2880	2030.000000	0
5.2890	2033.000000	0
5.2900	2036.000000	0
5.2910	2037.000000	0
5.2920	2037.000000	0
5.2930	2034.000000	0
5.2940	2031.000000	0
5.2950	2029.000000	0
5.2960	2024.000000	0
5.2970	2022.000000	0
5.2980	2020.000000	0
5.2990	2019.000000	0
5.3000	2020.000000	0
5.3010	2019.000000	0
5.3020	2020.000000	0
5.3030	2021.000000	0
5.3040	2024.000000	0
5.3050	2030.000000	0
5.3060	2035.000000	0
5.3070	2039.000000	0
5.3080	2041.000000	0
5.3090	2042.000000	0
5.3100	2045.000000	0
5.3110	2044.000000	0
5.3120	2044.000000	0
5.3130	2041.000000	0
5.3140	2038.000000	0
5.3150	2036.000000	0
5.3160	2033.000000	0
5.3170	2029.000000	0
5.3180	2027.000000	0
5.3190	2026.000000	0
5.3200	2026.000000	0
5.3210	2025.000000	0
5.3220	2026.000000	0
5.3230	2028.000000	0
5.3240	2030.000000	0
5.3250	2035.000000	0
5.3260	2041.000000	0
5.3270	2045.000000	0
5.3280	2048.000000	0
5.3290	2050.000000	0
5.3300	2052.000000	0
5.3310	2055.000000	0
5.3320	2054.000000	0
5.3330	2051.000000	0
5.3340	2047.000000	0
5.3350	2043.000000	0
5.3360	2041.000000	0
5.3370	2039.000000	0
5.3380	2035.000000	0
5.3390	2035.000000	0
5.3400	2034.000000	0
5.3410	2035.000000	0
5.3420	2035.000000	0
5.3430	2037.000000	0
5.3440	2040.000000	0
5.3450	2047.000000	0
5.3460	2052.000000	0
5.3470	2057.000000	0
5.3480	2058.000000	0
5.3490	2061.000000	0
5.3500	2064.000000	0
5.3510	2065.000000	0
5.3520	2064.000000	0
5.3530	2061.000000	0
5.3540	2057.000000	0
5.3550	2056.000000	0
5.3560	2052.000000	0
5.3570	2051.000000	0
5.3580	2048.000000	0
5.3590	2046.000000	0
5.3600	2048.000000	0
5.3610	2047.000000	0
5.3620	2046.000000	0
5.3630	2048.000000	0
5.3640	2051.000000	0
5.3650	2056.000000	0
5.3660	2061.000000	0
5.3670	2066.000000	0
5.3680	2068.000000	0
5.3690	2072.000000	0
5.3700	2073.000000	0
5.3710	2076.000000	0
5.3720	2076.000000	0
5.3730	2073.000000	0
5.3740	2071.000000	0
5.3750	2067.000000	0
5.3760	2065.000000	0
5.3770	2061.000000	0
5.3780	2059.000000	0
5.3790	2057.000000	0
5.3800	2059.000000	0
5.3810	2058.000000	0
5.3820	2060.000000	0
5.3830	2061.000000	0
5.3840	2064.000000	0
5.3850	2071.000000	0
5.3860	2076.000000	0
5.3870	2081.000000	0
5.3880	2084.000000	0
5.3890	2085.000000	0
5.3900	2088.000000	0
5.3910	2087.000000	0
5.3920	2087.000000	0
5.3930	2085.000000	0
5.3940	2083.000000	0
5.3950	2080.000000	0
5.3960	2076.000000	0
5.3970	2073.000000	0
5.3980	2072.000000	0
5.3990	2071.000000	0
5.4000	2073.000000	0
5.4010	2073.000000	0
5.4020	2073.000000	0
5.4030	2076.000000	0
5.4040	2079.000000	0
5.4050	2086.000000	0
5.4060	2090.000000	0
5.4070	2095.000000	0
5.4080	2097.000000	0
5.4090	2099.000000	0
5.4100	2101.000000	0
5.4110	2103.000000	0
5.4120	2102.000000	0
5.4130	2099.000000	0
5.4140	2096.000000	0
5.4150	2093.000000	0
5.4160	2090.000000	0
5.4170	2088.000000	0
5.4180	2086.000000	0
5.4190	2086.000000	0
5.4200	2087.000000	0
5.4210	2087.000000	0
5.4220	2088.000000	0
5.4230	2089.000000	0
5.4240	2092.000000	0
5.4250	2098.000000	0
5.4260	2102.000000	0
5.4270	2106.000000	0
5.4280	2108.000000	0
5.4290	2108.000000	0
5.4300	2112.000000	0
5.4310	2114.000000	0
5.4320	2113.000000	0
5.4330	2109.000000	0
5.4340	2105.000000	0
5.4350	2103.000000	0
5.4360	2097.000000	0
5.4370	2093.000000	0
5.4380	2091.000000	0
5.4390	2089.000000	0
5.4400	2090.000000	0
5.4410	2088.000000	0
5.4420	2088.000000	0
5.4430	2089.000000	0
5.4440	2092.000000	0
5.4450	2097.000000	0
5.4460	2100.000000	0
5.4470	2103.000000	0
5.4480	2103.000000	0
5.4490	2103.000000	0
5.4500	2104.000000	0
5.4510	2103.000000	0
5.4520	2101.000000	0
5.4530	2096.000000	0
