0	0	0
0.001	-0.123376	0
0.002	-0.246317	0
0.003	-0.368824	0
0.004	-0.500897	0
0.005	1.37746	0
0.006	6.25626	0
0.007	10.1355	0
0.008	16.0151	0
0.009	17.8952	0
0.01	19.7658	0
0.011	21.6467	0
0.012	22.5281	0
0.013	21.41	0
0.014	21.2922	0
0.015	18.1749	0
0.016	14.058	0
0.017	8.9316	0
0.018	5.81559	0
0.019	1.70001	0
0.02	-1.41513	0
0.021	-1.52985	0
0.022	-2.64413	0
0.023	-3.76798	0
0.024	-2.88139	0
0.025	1.00562	0
0.026	5.89307	0
0.027	10.7809	0
0.028	14.6693	0
0.029	15.548	0
0.03	17.4372	0
0.031	18.3268	0
0.032	20.2168	0
0.033	19.1073	0
0.034	16.9882	0
0.035	14.8795	0
0.036	10.7712	0
0.037	6.66342	0
0.038	3.55604	0
0.039	-0.560918	0
0.04	-0.667443	0
0.041	-0.773538	0
0.042	-2.8792	0
0.043	-1.98444	0
0.044	-1.09925	0
0.045	-0.203625	0
0.046	3.69243	0
0.047	9.58891	0
0.048	13.4858	0
0.049	14.3732	0
0.05	17.2709	0
0.051	19.1691	0
0.052	20.0677	0
0.053	18.9568	0
0.054	14.8563	0
0.055	12.7562	0
0.056	9.65652	0
0.057	6.54729	0
0.058	2.44848	0
0.059	-1.6499	0
0.06	-4.74785	0
0.061	-4.85538	0
0.062	-5.95247	0
0.063	-6.04914	0
0.064	-6.15539	0
0.065	-5.2512	0
0.066	0.653409	0
0.067	4.55845	0
0.068	8.45391	0
0.069	9.3598	0
0.07	11.2661	0
0.071	14.1629	0
0.072	15.07	0
0.073	13.9776	0
0.074	10.8756	0
0.075	6.7841	0
0.076	1.69297	0
0.077	-0.407732	0
0.078	-3.49801	0
0.079	-7.58786	0
0.08	-9.68728	0
0.081	-11.7763	0
0.082	-12.8649	0
0.083	-11.963	0
0.084	-12.0507	0
0.085	-10.148	0
0.086	-5.23491	0
0.087	-0.321363	0
0.088	4.58261	0
0.089	6.49701	0
0.09	9.40183	0
0.091	10.3171	0
0.092	12.2227	0
0.093	11.1388	0
0.094	10.0553	0
0.095	5.96229	0
0.096	2.87965	0
0.097	-1.21256	0
0.098	-3.29435	0
0.099	-6.38572	0
0.1	-8.46667	0
0.101	-8.55719	0
0.102	-7.63729	0
0.103	-6.72696	0
0.104	-5.80622	0
0.105	-3.89505	0
0.106	1.02654	0
0.107	7.93855	0
0.108	11.861	0
0.109	12.7738	0
0.11	15.6971	0
0.111	16.6108	0
0.112	17.5349	0
0.113	19.4495	0
0.114	17.3645	0
0.115	14.2898	0
0.116	12.2056	0
0.117	7.13187	0
0.118	5.04852	0
0.119	-0.0344136	0
0.12	-2.10692	0
0.121	-2.18901	0
0.122	-4.27068	0
0.123	-4.34193	0
0.124	-4.42276	0
0.125	-2.50317	0
0.126	1.42684	0
0.127	7.34727	0
0.128	11.2681	0
0.129	14.1994	0
0.13	15.1211	0
0.131	15.0432	0
0.132	15.9757	0
0.133	14.8987	0
0.134	11.822	0
0.135	7.74581	0
0.136	3.68002	0
0.137	0.604639	0
0.138	-3.47032	0
0.139	-8.54486	0
0.14	-9.61898	0
0.141	-11.6827	0
0.142	-11.756	0
0.143	-12.8288	0
0.144	-12.9013	0
0.145	-11.9733	0
0.146	-8.04494	0
0.147	-5.10614	0
0.148	-1.17692	0
0.149	1.75272	0
0.15	2.68277	0
0.151	4.61324	0
0.152	6.54413	0
0.153	6.47544	0
0.154	4.40716	0
0.155	1.3393	0
0.156	-1.72815	0
0.157	-7.79518	0
0.158	-12.8618	0
0.159	-14.928	0
0.16	-15.9938	0
0.161	-17.0591	0
0.162	-17.1241	0
0.163	-18.1886	0
0.164	-18.2527	0
0.165	-16.3164	0
0.166	-13.3797	0
0.167	-8.4426	0
0.168	-3.50505	0
0.169	0.432904	0
0.17	2.37128	0
0.171	4.31006	0
0.172	5.24927	0
0.173	5.17888	0
0.174	3.11891	0
0.175	1.05936	0
0.176	-1.99978	0
0.177	-5.05851	0
0.178	-9.11682	0
0.179	-14.1847	0
0.18	-17.2422	0
0.181	-17.2993	0
0.182	-19.3559	0
0.183	-19.4222	0
0.184	-19.478	0
0.185	-16.5334	0
0.186	-11.5884	0
0.187	-7.65303	0
0.188	-2.70721	0
0.189	-0.760978	0
0.19	1.17567	0
0.191	2.12272	0
0.192	3.07019	0
0.193	2.00808	0
0.194	-2.04363	0
0.195	-4.10492	0
0.196	-4.15581	0
0.197	-9.20628	0
0.198	-11.2663	0
0.199	-16.316	0
0.2	-19.3752	0
0.201	-19.424	0
0.202	-21.4825	0
0.203	-20.5305	0
0.204	-20.5881	0
0.205	-19.6352	0
0.206	-15.692	0
0.207	-9.73837	0
0.208	-5.79432	0
0.209	-2.84985	0
0.21	-1.89498	0
0.211	2.0503	0
0.212	4.00599	0
0.213	3.95209	0
0.214	1.8986	0
0.215	-1.14448	0
0.216	-4.19715	0
0.217	-10.2494	0
0.218	-13.2913	0
0.219	-17.3427	0
0.22	-19.3937	0
0.221	-19.4444	0
0.222	-20.4846	0
0.223	-21.5344	0
0.224	-21.5838	0
0.225	-20.6328	0
0.226	-15.6814	0
0.227	-10.7295	0
0.228	-6.76729	0
0.229	-3.81465	0
0.23	-2.8616	0
0.231	0.09186	0
0.232	0.0457263	0
0.233	0	0
0.234	-2.04532	0
0.235	-5.09023	0
0.236	-9.13473	0
0.237	-14.1788	0
0.238	-19.2225	0
0.239	-23.2658	0
0.24	-26.3087	0
0.241	-29.3512	0
0.242	-33.3932	0
0.243	-37.4349	0
0.244	-41.4761	0
0.245	-44.517	0
0.246	-44.5574	0
0.247	-45.6074	0
0.248	-43.6471	0
0.249	-43.6863	0
0.25	-43.7251	0
0.251	-40.7635	0
0.252	-39.8115	0
0.253	-38.8491	0
0.254	-37.8863	0
0.255	-37.9231	0
0.256	-36.9695	0
0.257	-36.0055	0
0.258	-36.041	0
0.259	-35.0862	0
0.26	-35.121	0
0.261	-32.1553	0
0.262	-29.1993	0
0.263	-25.2329	0
0.264	-16.276	0
0.265	-4.30875	0
0.266	15.6589	0
0.267	42.617	0
0.268	75.5854	0
0.269	109.544	0
0.27	145.514	0
0.271	181.473	0
0.272	215.433	0
0.273	246.404	0
0.274	270.365	0
0.275	290.336	0
0.276	308.298	0
0.277	320.26	0
0.278	330.232	0
0.279	337.195	0
0.28	344.158	0
0.281	354.132	0
0.282	361.096	0
0.283	369.061	1
0.284	374.026	0
0.285	377.991	0
0.286	380.967	0
0.287	377.933	0
0.288	369.899	0
0.289	355.866	0
0.29	334.834	0
0.291	309.801	0
0.292	276.769	0
0.293	239.738	0
0.294	198.707	0
0.295	155.676	0
0.296	117.646	0
0.297	80.6159	0
0.298	51.5864	0
0.299	29.5573	0
0.3	14.5287	0
0.301	5.50038	0
0.302	0.472491	0
0.303	-5.55499	0
0.304	-8.58208	0
0.305	-12.6088	0
0.306	-10.6451	0
0.307	-9.67095	0
0.308	-7.69644	0
0.309	-7.72153	0
0.31	-7.75622	0
0.311	-6.78052	0
0.312	-8.80441	0
0.313	-9.82791	0
0.314	-13.861	0
0.315	-20.8837	0
0.316	-22.916	0
0.317	-29.9379	0
0.318	-35.9594	0
0.319	-40.9905	0
0.32	-45.0113	0
0.321	-46.0416	0
0.322	-51.0615	0
0.323	-51.091	0
0.324	-53.1101	0
0.325	-51.1389	0
0.326	-47.1672	0
0.327	-43.1851	0
0.328	-40.2127	0
0.329	-38.2298	0
0.33	-36.2565	0
0.331	-35.2829	0
0.332	-34.2988	0
0.333	-34.3244	0
0.334	-37.3496	0
0.335	-39.3743	0
0.336	-42.3987	0
0.337	-46.4127	0
0.338	-51.4362	0
0.339	-56.4594	0
0.34	-60.4822	0
0.341	-59.5046	0
0.342	-58.5266	0
0.343	-59.5482	0
0.344	-59.5694	0
0.345	-57.5902	0
0.346	-54.6107	0
0.347	-48.6307	0
0.348	-46.6503	0
0.349	-44.6695	0
0.35	-41.6884	0
0.351	-37.7068	0
0.352	-37.7249	0
0.353	-35.7425	0
0.354	-37.7698	0
0.355	-40.7867	0
0.356	-42.8032	0
0.357	-45.8193	0
0.358	-49.835	0
0.359	-52.8603	0
0.36	-55.8752	0
0.361	-52.8897	0
0.362	-54.9138	0
0.363	-54.9275	0
0.364	-54.9509	0
0.365	-53.9638	0
0.366	-48.9764	0
0.367	-44.9985	0
0.368	-40.0103	0
0.369	-36.0317	0
0.37	-36.0427	0
0.371	-32.0633	0
0.372	-29.0835	0
0.373	-28.0933	0
0.374	-30.1127	0
0.375	-34.1317	0
0.376	-37.1404	0
0.377	-40.1586	0
0.378	-44.1765	0
0.379	-48.1839	0
0.38	-50.201	0
0.381	-49.2177	0
0.382	-51.234	0
0.383	-51.2499	0
0.384	-51.2554	0
0.385	-49.2705	0
0.386	-45.2853	0
0.387	-41.2996	0
0.388	-37.3136	0
0.389	-34.3271	0
0.39	-32.3403	0
0.391	-29.3531	0
0.392	-28.3655	0
0.393	-27.3775	0
0.394	-27.3891	0
0.395	-30.4104	0
0.396	-32.4212	0
0.397	-34.4317	0
0.398	-37.4417	0
0.399	-42.4514	0
0.4	-42.4707	0
0.401	-43.4796	0
0.402	-44.4881	0
0.403	-45.4962	0
0.404	-44.514	0
0.405	-42.5213	0
0.406	-37.5383	0
0.407	-32.5449	0
0.408	-27.5511	0
0.409	-25.5669	0
0.41	-24.5723	0
0.411	-23.5873	0
0.412	-19.5919	0
0.413	-20.6062	0
0.414	-21.6201	0
0.415	-23.6235	0
0.416	-24.6366	0
0.417	-29.6393	0
0.418	-32.6517	0
0.419	-34.6636	0
0.42	-34.6751	0
0.421	-35.6763	0
0.422	-35.6871	0
0.423	-36.6975	0
0.424	-35.7075	0
0.425	-33.7171	0
0.426	-27.7263	0
0.427	-22.7352	0
0.428	-17.7337	0
0.429	-14.7417	0
0.43	-11.7494	0
0.431	-6.75674	0
0.432	-7.77367	0
0.433	-4.78021	0
0.434	-5.78637	0
0.435	-6.79215	0
0.436	-7.79754	0
0.437	-12.8025	0
0.438	-17.8072	0
0.439	-20.8214	0
0.44	-22.8253	0
0.441	-21.8287	0
0.442	-22.8318	0
0.443	-21.8445	0
0.444	-22.8468	0
0.445	-19.8588	0
0.446	-14.8603	0
0.447	-10.8615	0
0.448	-6.87231	0
0.449	-3.87272	0
0.45	-0.882742	0
0.451	2.11761	0
0.452	3.10835	0
0.453	3.09947	0
0.454	2.10098	0
0.455	1.09286	0
0.456	-0.914871	0
0.457	-3.91222	0
0.458	-7.91919	0
0.459	-11.9258	0
0.46	-11.932	0
0.461	-10.9278	0
0.462	-12.9333	0
0.463	-12.9383	0
0.464	-13.943	0
0.465	-11.9473	0
0.466	-5.95124	0
0.467	-0.954778	0
0.468	4.04206	0
0.469	8.03928	0
0.47	10.0369	0
0.471	12.0349	0
0.472	15.0332	0
0.473	16.032	0
0.474	15.0311	0
0.475	14.0206	0
0.476	12.0204	0
0.477	9.0207	0
0.478	5.02134	0
0.479	3.01235	0
0.48	2.01375	0
0.481	2.01552	0
0.482	2.00767	0
0.483	2.0102	0
0.484	2.00311	0
0.485	4.0064	0
0.486	11.0001	0
0.487	16.0041	0
0.488	20.9985	0
0.489	25.0033	0
0.49	27.9985	0
0.491	28.9941	0
0.492	32	0
0.493	33.9963	0
0.494	31.993	0
0.495	29.9901	0
0.496	26.9975	0
0.497	24.9953	0
0.498	20.9935	0
0.499	18.9921	0
0.5	16.991	0
0.501	15.9904	0
0.502	16.9901	0
0.503	17.9901	0
0.504	17.9906	0
0.505	19.9914	0
0.506	24.9926	0
0.507	31.9942	0
0.508	35.9962	0
0.509	38.9985	0
0.51	41.0012	0
0.511	41.9943	0
0.512	44.9977	0
0.513	46.0016	0
0.514	44.9958	0
0.515	42.0004	0
0.516	42.0053	0
0.517	37.0007	0
0.518	34.0064	0
0.519	30.0025	0
0.52	29.0089	0
0.521	29.0058	0
0.522	28.013	0
0.523	27.0105	0
0.524	26.0185	0
0.525	28.0168	0
0.526	33.0155	0
0.527	37.0246	0
0.528	42.024	0
0.529	45.0239	0
0.53	47.0241	0
0.531	49.0346	0
0.532	51.0356	0
0.533	51.0369	0
0.534	49.0386	0
0.535	46.0406	0
0.536	45.0431	0
0.537	39.0459	0
0.538	35.049	0
0.539	31.0526	0
0.54	29.0565	0
0.541	29.0608	0
0.542	28.0655	0
0.543	28.0705	0
0.544	26.0659	0
0.545	28.0717	0
0.546	31.0778	0
0.547	35.0744	0
0.548	37.0812	0
0.549	39.0885	0
0.55	39.0861	0
0.551	40.0942	0
0.552	39.1025	0
0.553	38.1013	0
0.554	34.1104	0
0.555	29.1099	0
0.556	26.1097	0
0.557	20.12	0
0.558	14.1206	0
0.559	8.13152	0
0.56	4.13286	0
0.561	1.13457	0
0.562	-2.86336	0
0.563	-5.85091	0
0.564	-7.8481	0
0.565	-7.84492	0
0.566	-5.84136	0
0.567	-3.83744	0
0.568	-0.833152	0
0.569	-0.828493	0
0.57	-0.823466	0
0.571	1.18193	0
0.572	0.187694	0
0.573	-2.80617	0
0.574	-5.79967	0
0.575	-10.7928	0
0.576	-14.7956	0
0.577	-22.788	0
0.578	-26.78	0
0.579	-32.7717	0
0.58	-35.7729	0
0.581	-37.7639	0
0.582	-42.7544	0
0.583	-44.7546	0
0.584	-46.7445	0
0.585	-45.7439	0
0.586	-42.733	0
0.587	-39.7317	0
0.588	-38.7201	0
0.589	-37.7181	0
0.59	-36.7157	0
0.591	-37.703	0
0.592	-35.6999	0
0.593	-36.6964	0
0.594	-40.6825	0
0.595	-43.6783	0
0.596	-46.6738	0
0.597	-52.6688	0
0.598	-57.6635	0
0.599	-62.6579	0
0.6	-64.6518	0
0.601	-65.6454	0
0.602	-67.6387	0
0.603	-69.6316	0
0.604	-70.6241	0
0.605	-70.6162	0
0.606	-66.608	0
0.607	-63.5994	0
0.608	-59.6005	0
0.609	-56.5912	0
0.61	-55.5815	0
0.611	-54.5714	0
0.612	-52.571	0
0.613	-51.5603	0
0.614	-53.5591	0
0.615	-55.5477	0
0.616	-58.5358	0
0.617	-63.5336	0
0.618	-68.531	0
0.619	-72.5181	0
0.62	-75.5147	0
0.621	-74.5011	0
0.622	-76.497	0
0.623	-78.4926	0
0.624	-78.4779	0
0.625	-75.4728	0
0.626	-70.4673	0
0.627	-65.4614	0
0.628	-60.4552	0
0.629	-57.4487	0
0.63	-55.4417	0
0.631	-55.4345	0
0.632	-53.4268	0
0.633	-51.4188	0
0.634	-52.4104	0
0.635	-55.4017	0
0.636	-56.3926	0
0.637	-61.3831	0
0.638	-66.3733	0
0.639	-70.3631	0
0.64	-72.3626	0
0.641	-71.3517	0
0.642	-72.3404	0
0.643	-73.3388	0
0.644	-72.3268	0
0.645	-70.3245	0
0.646	-65.3118	0
0.647	-61.2987	0
0.648	-57.2953	0
0.649	-54.2915	0
0.65	-51.2774	0
0.651	-48.2729	0
0.652	-45.258	0
0.653	-46.2528	0
0.654	-48.2473	0
0.655	-50.2413	0
0.656	-52.225	0
0.657	-56.2184	0
0.658	-60.2114	0
0.659	-64.204	0
0.66	-64.1963	0
0.661	-64.1882	0
0.662	-66.1798	0
0.663	-68.171	0
0.664	-68.1618	0
0.665	-65.1523	0
0.666	-60.1424	0
0.667	-56.1322	0
0.668	-52.1316	0
0.669	-50.1207	0
0.67	-46.1094	0
0.671	-45.1077	0
0.672	-42.0957	0
0.673	-42.0833	0
0.674	-43.0806	0
0.675	-45.0675	0
0.676	-48.0641	0
0.677	-52.0503	0
0.678	-56.0461	0
0.679	-59.0316	0
0.68	-60.0268	0
0.681	-61.0116	0
0.682	-64.006	0
0.683	-64.0001	0
0.684	-64.9938	0
0.685	-59.9771	0
0.686	-56.9701	0
0.687	-49.9628	0
0.688	-45.9551	0
0.689	-43.947	0
0.69	-39.9386	0
0.691	-36.9298	0
0.692	-34.9207	0
0.693	-34.9112	0
0.694	-35.9014	0
0.695	-38.8912	0
0.696	-41.8807	0
0.697	-45.8698	0
0.698	-49.8685	0
0.699	-53.8569	0
0.7	-54.845	0
0.701	-55.8327	0
0.702	-56.83	0
0.703	-57.817	0
0.704	-58.8136	0
0.705	-54.7999	0
0.706	-51.7958	0
0.707	-46.7814	0
0.708	-42.7766	0
0.709	-39.7615	0
0.71	-36.756	0
0.711	-34.7502	0
0.712	-33.734	0
0.713	-33.7274	0
0.714	-34.7206	0
0.715	-36.7133	0
0.716	-38.7057	0
0.717	-43.6878	0
0.718	-47.6795	0
0.719	-51.6708	0
0.72	-51.6618	0
0.721	-52.6525	0
0.722	-53.6428	0
0.723	-56.6327	0
0.724	-56.6323	0
0.725	-53.6215	0
0.726	-48.6104	0
0.727	-43.599	0
0.728	-39.5872	0
0.729	-35.585	0
0.73	-33.5725	0
0.731	-32.5597	0
0.732	-29.5565	0
0.733	-28.5429	0
0.734	-29.539	0
0.735	-32.5247	0
0.736	-34.5201	0
0.737	-39.5052	0
0.738	-43.4999	0
0.739	-48.4942	0
0.74	-50.4782	0
0.741	-51.4719	0
0.742	-52.4652	0
0.743	-53.4581	0
0.744	-53.4407	0
0.745	-50.433	0
0.746	-47.4249	0
0.747	-42.4165	0
0.748	-37.4077	0
0.749	-35.3985	0
0.75	-31.389	0
0.751	-29.3792	0
0.752	-28.369	0
0.753	-28.3585	0
0.754	-30.3576	0
0.755	-31.3464	0
0.756	-35.3348	0
0.757	-39.3229	0
0.758	-43.3207	0
0.759	-47.3081	0
0.76	-49.2951	0
0.761	-50.2918	0
0.762	-52.2782	0
0.763	-54.2742	0
0.764	-53.2598	0
0.765	-49.2551	0
0.766	-46.2401	0
0.767	-41.2347	0
0.768	-37.229	0
0.769	-34.2129	0
0.77	-31.2065	0
0.771	-30.1998	0
0.772	-27.1927	0
0.773	-28.1852	0
0.774	-29.1674	0
0.775	-32.1593	0
0.776	-35.1508	0
0.777	-38.142	0
0.778	-43.1328	0
0.779	-47.1233	0
0.78	-48.1134	0
0.781	-49.1132	0
0.782	-50.1027	0
0.783	-51.0918	0
0.784	-51.0805	0
0.785	-48.0689	0
0.786	-45.067	0
0.787	-38.0548	0
0.788	-35.0421	0
0.789	-33.0392	0
0.79	-31.0259	0
0.791	-29.0222	0
0.792	-28.0083	0
0.793	-29.0039	0
0.794	-27.9893	0
0.795	-29.9843	0
0.796	-32.9789	0
0.797	-35.9632	0
0.798	-40.9572	0
0.799	-44.9508	0
0.8	-46.9441	0
0.801	-48.937	0
0.802	-48.9196	0
0.803	-49.9118	0
0.804	-49.9037	0
0.805	-48.8953	0
0.806	-43.8865	0
0.807	-38.8774	0
0.808	-35.868	0
0.809	-32.8682	0
0.81	-29.858	0
0.811	-28.8476	0
0.812	-26.8368	0
0.813	-26.8256	0
0.814	-27.8241	0
0.815	-30.8123	0
0.816	-33.8001	0
0.817	-35.7976	0
0.818	-40.7847	0
0.819	-42.7815	0
0.82	-44.768	0
0.821	-45.7641	0
0.822	-46.7499	0
0.823	-47.7453	0
0.824	-47.7404	0
0.825	-45.7252	0
0.826	-40.7196	0
0.827	-35.7137	0
0.828	-32.7075	0
0.829	-29.6909	0
0.83	-27.6839	0
0.831	-24.6767	0
0.832	-24.6691	0
0.833	-25.6611	0
0.834	-25.6528	0
0.835	-26.6442	0
0.836	-28.6353	0
0.837	-32.626	0
0.838	-36.6163	0
0.839	-40.6164	0
0.84	-42.6061	0
0.841	-42.5954	0
0.842	-44.5844	0
0.843	-46.5831	0
0.844	-46.5715	0
0.845	-43.5595	0
0.846	-38.5571	0
0.847	-33.5445	0
0.848	-29.5415	0
0.849	-26.5281	0
0.85	-24.5245	0
0.851	-21.5205	0
0.852	-19.5061	0
0.853	-19.5014	0
0.854	-19.4964	0
0.855	-22.4811	0
0.856	-24.4754	0
0.857	-29.4694	0
0.858	-33.463	0
0.859	-35.4563	0
0.86	-37.4493	0
0.861	-38.4419	0
0.862	-40.4342	0
0.863	-41.4262	0
0.864	-41.4178	0
0.865	-37.4091	0
0.866	-33.4001	0
0.867	-29.3907	0
0.868	-25.381	0
0.869	-23.381	0
0.87	-20.3706	0
0.871	-19.3599	0
0.872	-16.3588	0
0.873	-16.3475	0
0.874	-17.3358	0
0.875	-17.3337	0
0.876	-21.3214	0
0.877	-25.3187	0
0.878	-29.3056	0
0.879	-32.3022	0
0.88	-34.2985	0
0.881	-34.2845	0
0.882	-36.2801	0
0.883	-36.2754	0
0.884	-37.2704	0
0.885	-33.255	0
0.886	-29.2493	0
0.887	-23.2433	0
0.888	-20.2369	0
0.889	-16.2302	0
0.89	-13.2232	0
0.891	-11.2159	0
0.892	-10.2082	0
0.893	-11.2002	0
0.894	-11.1918	0
0.895	-13.1831	0
0.896	-16.1841	0
0.897	-21.1748	0
0.898	-27.1651	0
0.899	-30.1651	0
0.9	-32.1548	0
0.901	-32.1441	0
0.902	-34.1431	0
0.903	-36.1318	0
0.904	-35.1301	0
0.905	-31.1181	0
0.906	-28.1158	0
0.907	-23.1032	0
0.908	-19.1002	0
0.909	-16.0969	0
0.91	-15.0833	0
0.911	-12.0793	0
0.912	-10.075	0
0.913	-9.0704	0
0.914	-10.0555	0
0.915	-12.0502	0
0.916	-16.0446	0
0.917	-20.0386	0
0.918	-24.0324	0
0.919	-27.0258	0
0.92	-28.0189	0
0.921	-28.0116	0
0.922	-29.0041	0
0.923	-30.9962	0
0.924	-28.9979	0
0.925	-25.9894	0
0.926	-21.9805	0
0.927	-17.9713	0
0.928	-13.9717	0
0.929	-9.96187	0
0.93	-8.96168	0
0.931	-7.95116	0
0.932	-4.94031	0
0.933	-3.93914	0
0.934	-5.92764	0
0.935	-7.92582	0
0.936	-11.9237	0
0.937	-15.9112	0
0.938	-20.9084	0
0.939	-23.9053	0
0.94	-24.8918	0
0.941	-27.888	0
0.942	-28.8839	0
0.943	-30.8795	0
0.944	-30.8747	0
0.945	-26.8696	0
0.946	-23.8642	0
0.947	-16.8585	0
0.948	-13.8525	0
0.949	-10.8461	0
0.95	-7.83936	0
0.951	-6.83233	0
0.952	-4.82498	0
0.953	-4.8173	0
0.954	-5.8193	0
0.955	-7.81097	0
0.956	-10.8023	0
0.957	-15.7933	0
0.958	-22.794	0
0.959	-23.7844	0
0.96	-24.7845	0
0.961	-25.7742	0
0.962	-26.7736	0
0.963	-29.7627	0
0.964	-27.7615	0
0.965	-24.7499	0
0.966	-20.748	0
0.967	-15.7458	0
0.968	-14.7333	0
0.969	-8.73043	0
0.97	-6.72726	0
0.971	-3.72376	0
0.972	-3.71994	0
0.973	-3.7158	0
0.974	-5.70134	0
0.975	-8.69656	0
0.976	-12.6915	0
0.977	-15.686	0
0.978	-21.6903	0
0.979	-24.6842	0
0.98	-24.6778	0
0.981	-26.6711	0
0.982	-27.6641	0
0.983	-29.6567	0
0.984	-28.659	0
0.985	-26.6511	0
0.986	-22.6427	0
0.987	-17.6441	0
0.988	-13.6351	0
0.989	-10.6259	0
0.99	-8.62628	0
0.991	-4.61636	0
0.992	-2.61613	0
0.993	-3.60557	0
0.994	-4.6047	0
0.995	-6.60351	0
0.996	-12.592	0
0.997	-14.5902	0
0.998	-20.588	0
0.999	-23.5855	0
1	-23.5728	0
1.001	-24.5696	0
1.002	-26.5662	0
1.003	-27.5625	0
1.004	-27.5584	0
1.005	-24.554	0
1.006	-20.5493	0
1.007	-15.5443	0
1.008	-12.539	0
1.009	-9.53333	0
1.01	-7.52736	0
1.011	-5.53107	0
1.012	-4.52446	0
1.013	-4.51754	0
1.014	-6.5103	0
1.015	-7.51274	0
1.016	-11.5049	0
1.017	-16.4967	0
1.018	-20.4982	0
1.019	-23.4893	0
1.02	-24.4902	0
1.021	-26.4807	0
1.022	-28.481	0
1.023	-28.4709	0
1.024	-28.4705	0
1.025	-22.4698	0
1.026	-16.4587	0
1.027	-11.4574	0
1.028	-7.4557	0
1.029	-4.44372	0
1.03	-0.441418	0
1.031	1.5612	0
1.032	2.56413	0
1.033	2.56737	0
1.034	3.57093	0
1.035	0.574805	0
1.036	-2.42101	0
1.037	-6.4165	0
1.038	-10.4117	0
1.039	-12.4066	0
1.04	-13.4011	0
1.041	-15.3953	0
1.042	-16.3993	0
1.043	-17.3929	0
1.044	-17.3862	0
1.045	-14.3792	0
1.046	-11.3818	0
1.047	-6.37419	0
1.048	-2.37624	0
1.049	0.632032	0
1.05	4.64061	0
1.051	4.63951	0
1.052	7.64872	0
1.053	5.64824	0
1.054	3.64807	0
1.055	0.658216	0
1.056	-4.34133	0
1.057	-8.34056	0
1.058	-12.3295	0
1.059	-16.3281	0
1.06	-19.3264	0
1.061	-22.3244	0
1.062	-24.322	0
1.063	-24.3194	0
1.064	-22.3064	0
1.065	-19.3032	0
1.066	-14.2996	0
1.067	-11.2957	0
1.068	-7.29151	0
1.069	-4.297	0
1.07	-1.29219	0
1.071	-1.28706	0
1.072	-0.281617	0
1.073	-1.27587	0
1.074	-2.26981	0
1.075	-4.27344	0
1.076	-8.26676	0
1.077	-14.2598	0
1.078	-19.2625	0
1.079	-22.2549	0
1.08	-22.2569	0
1.081	-24.2487	0
1.082	-25.2502	0
1.083	-27.2413	0
1.084	-27.2422	0
1.085	-24.2327	0
1.086	-20.2329	0
1.087	-14.2328	0
1.088	-11.2225	0
1.089	-8.22175	0
1.09	-5.22074	0
1.091	-4.20943	0
1.092	-2.2078	0
1.093	-2.20587	0
1.094	-3.20363	0
1.095	-4.20108	0
1.096	-7.19822	0
1.097	-11.1951	0
1.098	-16.1916	0
1.099	-20.1878	0
1.1	-20.1837	0
1.101	-21.1793	0
1.102	-22.1746	0
1.103	-23.1696	0
1.104	-24.1743	0
1.105	-19.1687	0
1.106	-15.1628	0
1.107	-10.1565	0
1.108	-7.15998	0
1.109	-3.15314	0
1.11	-0.145984	0
1.111	1.85147	0
1.112	1.85924	0
1.113	0.857308	0
1.114	-1.13432	0
1.115	-2.13563	0
1.116	-5.12665	0
1.117	-9.12736	0
1.118	-14.1178	0
1.119	-18.1179	0
1.12	-20.1177	0
1.121	-20.1071	0
1.122	-21.1063	0
1.123	-23.1052	0
1.124	-22.1038	0
1.125	-16.102	0
1.126	-13.09	0
1.127	-10.0877	0
1.128	-6.08503	0
1.129	-2.08208	0
1.13	0.921166	0
1.131	1.92472	0
1.132	2.92858	0
1.133	1.93274	0
1.134	-0.0627985	0
1.135	-1.06803	0
1.136	-4.06296	0
1.137	-9.05759	0
1.138	-14.0519	0
1.139	-16.0459	0
1.14	-17.0497	0
1.141	-17.0431	0
1.142	-18.0362	0
1.143	-20.039	0
1.144	-20.0315	0
1.145	-16.0337	0
1.146	-12.0256	0
1.147	-7.02722	0
1.148	-3.01852	0
1.149	-0.0195191	0
1.15	1.98978	0
1.151	2.98938	0
1.152	2.99929	0
1.153	0.999494	0
1.154	0	0
1.155	-2.99919	0
1.156	-6.98809	0
1.157	-11.9867	0
1.158	-16.985	0
1.159	-20.983	0
1.16	-21.9807	0
1.161	-26.9781	0
1.162	-30.9652	0
1.163	-34.962	0
1.164	-39.9585	0
1.165	-39.9547	0
1.166	-40.9506	0
1.167	-40.9563	0
1.168	-41.9516	0
1.169	-42.9466	0
1.17	-42.9414	0
1.171	-40.9359	0
1.172	-40.93	0
1.173	-40.9339	0
1.174	-38.9275	0
1.175	-37.9208	0
1.176	-36.9138	0
1.177	-37.9166	0
1.178	-38.909	0
1.179	-37.9111	0
1.18	-33.903	0
1.181	-33.9046	0
1.182	-30.8959	0
1.183	-28.8969	0
1.184	-19.8876	0
1.185	-4.8881	0
1.186	13.1217	0
1.187	40.1218	0
1.188	72.1222	0
1.189	106.133	0
1.19	143.134	0
1.191	177.135	0
1.192	209.137	0
1.193	235.148	0
1.194	256.15	0
1.195	276.153	0
1.196	289.155	0
1.197	301.158	0
1.198	307.161	0
1.199	314.165	0
1.2	323.169	0
1.201	330.173	0
1.202	339.177	0
1.203	347.181	0
1.204	354.186	1
1.205	362.191	0
1.206	366.197	0
1.207	366.192	0
1.208	359.198	0
1.209	349.204	0
1.21	331.211	0
1.211	308.207	0
1.212	278.214	0
1.213	240.222	0
1.214	202.219	0
1.215	161.227	0
1.216	123.225	0
1.217	84.2331	0
1.218	51.2316	0
1.219	27.2404	0
1.22	12.2394	0
1.221	2.24875	0
1.222	-6.75167	0
1.223	-11.7418	0
1.224	-15.7417	0
1.225	-15.7414	0
1.226	-13.7308	0
1.227	-11.7299	0
1.228	-9.72878	0
1.229	-9.7274	0
1.23	-7.71577	0
1.231	-8.71388	0
1.232	-10.7117	0
1.233	-12.7093	0
1.234	-16.7067	0
1.235	-20.7038	0
1.236	-24.7006	0
1.237	-29.6972	0
1.238	-35.6936	0
1.239	-40.6897	0
1.24	-43.6855	0
1.241	-45.6811	0
1.242	-48.6765	0
1.243	-50.6716	0
1.244	-50.6664	0
1.245	-46.671	0
1.246	-42.6654	0
1.247	-39.6595	0
1.248	-36.6534	0
1.249	-34.657	0
1.25	-34.6504	0
1.251	-31.6436	0
1.252	-31.6465	0
1.253	-33.6392	0
1.254	-34.6316	0
1.255	-36.6338	0
1.256	-41.6257	0
1.257	-45.6274	0
1.258	-49.6189	0
1.259	-52.6201	0
1.26	-53.6111	0
1.261	-55.6119	0
1.262	-57.6124	0
1.263	-57.6027	0
1.264	-55.6027	0
1.265	-52.6026	0
1.266	-47.5921	0
1.267	-43.5915	0
1.268	-40.5906	0
1.269	-36.5895	0
1.27	-33.5782	0
1.271	-33.5766	0
1.272	-32.5748	0
1.273	-33.5728	0
1.274	-33.5705	0
1.275	-36.568	0
1.276	-40.5653	0
1.277	-45.5624	0
1.278	-48.5592	0
1.279	-49.5558	0
1.28	-51.5522	0
1.281	-51.5484	0
1.282	-53.5443	0
1.283	-55.54	0
1.284	-55.5355	0
1.285	-50.5308	0
1.286	-46.5358	0
1.287	-42.5307	0
1.288	-38.5253	0
1.289	-35.5197	0
1.29	-31.5238	0
1.291	-30.5178	0
1.292	-29.5115	0
1.293	-29.5151	0
1.294	-30.5084	0
1.295	-30.5015	0
1.296	-35.5043	0
1.297	-39.497	0
1.298	-43.4994	0
1.299	-44.4917	0
1.3	-45.4937	0
1.301	-46.4855	0
1.302	-46.4871	0
1.303	-47.4785	0
1.304	-46.4797	0
1.305	-43.4806	0
1.306	-39.4714	0
1.307	-34.472	0
1.308	-30.4723	0
1.309	-26.4624	0
1.31	-22.4624	0
1.311	-20.4621	0
1.312	-20.4616	0
1.313	-19.4509	0
1.314	-20.45	0
1.315	-22.4489	0
1.316	-27.4476	0
1.317	-31.4462	0
1.318	-35.4445	0
1.319	-37.4426	0
1.32	-38.4405	0
1.321	-40.4382	0
1.322	-41.4357	0
1.323	-42.433	0
1.324	-39.4301	0
1.325	-35.427	0
1.326	-30.4237	0
1.327	-26.4202	0
1.328	-21.4165	0
1.329	-17.4127	0
1.33	-15.4086	0
1.331	-11.4143	0
1.332	-10.4099	0
1.333	-12.4052	0
1.334	-15.4004	0
1.335	-16.4054	0
1.336	-21.4001	0
1.337	-25.3947	0
1.338	-28.3991	0
1.339	-30.3933	0
1.34	-29.3874	0
1.341	-31.3912	0
1.342	-33.3849	0
1.343	-31.3883	0
1.344	-31.3816	0
1.345	-27.3747	0
1.346	-23.3776	0
1.347	-18.3703	0
1.348	-15.3729	0
1.349	-10.3752	0
1.35	-6.36741	0
1.351	-4.3694	0
1.352	-3.36122	0
1.353	-4.36285	0
1.354	-4.36431	0
1.355	-7.35559	0
1.356	-9.35669	0
1.357	-13.3576	0
1.358	-17.3584	0
1.359	-20.3489	0
1.36	-19.3493	0
1.361	-19.3495	0
1.362	-21.3496	0
1.363	-21.3494	0
1.364	-19.3391	0
1.365	-14.3387	0
1.366	-10.338	0
1.367	-6.33718	0
1.368	-2.33619	0
1.369	0.664973	0
1.37	4.66631	0
1.371	4.66781	0
1.372	6.66948	0
1.373	5.67132	0
1.374	5.67332	0
1.375	2.67549	0
1.376	-0.322167	0
1.377	-3.31966	0
1.378	-7.31699	0
1.379	-9.31416	0
1.38	-8.32117	0
1.381	-10.318	0
1.382	-12.3147	0
1.383	-13.3112	0
1.384	-10.3076	0
1.385	-5.31375	0
1.386	-1.30978	0
1.387	3.69434	0
1.388	7.69862	0
1.389	12.6931	0
1.39	16.6977	0
1.391	16.6924	0
1.392	17.6973	0
1.393	17.7024	0
1.394	15.6976	0
1.395	12.703	0
1.396	11.6985	0
1.397	8.70422	0
1.398	4.71006	0
1.399	1.70605	0
1.4	2.71219	0
1.401	0.70848	0
1.402	-2.29508	0
1.403	-0.288486	0
1.404	1.70825	0
1.405	6.71514	0
1.406	11.7122	0
1.407	16.7094	0
1.408	21.7167	0
1.409	26.7142	0
1.41	28.7218	0
1.411	33.7196	0
1.412	34.7175	0
1.413	32.7155	0
1.414	32.7237	0
1.415	31.7221	0
1.416	25.7205	0
1.417	23.7192	0
1.418	18.7179	0
1.419	16.7268	0
1.42	14.7259	0
1.421	14.725	0
1.422	14.7244	0
1.423	14.7238	0
1.424	15.7234	0
1.425	20.7231	0
1.426	24.723	0
1.427	29.733	0
1.428	34.7331	0
1.429	37.7334	0
1.43	41.7338	0
1.431	43.7343	0
1.432	44.735	0
1.433	44.7258	0
1.434	42.7267	0
1.435	38.7278	0
1.436	36.729	0
1.437	31.7303	0
1.438	27.7317	0
1.439	24.7333	0
1.44	21.735	0
1.441	22.7368	0
1.442	20.7288	0
1.443	20.7308	0
1.444	22.733	0
1.445	27.7354	0
1.446	30.7378	0
1.447	36.7304	0
1.448	38.7331	0
1.449	41.7359	0
1.45	43.7288	0
1.451	46.7319	0
1.452	47.7351	0
1.453	47.7384	0
1.454	44.7318	0
1.455	43.7353	0
1.456	38.7289	0
1.457	33.7327	0
1.458	27.7366	0
1.459	24.7306	0
1.46	23.7347	0
1.461	21.7289	0
1.462	19.7333	0
1.463	16.7277	0
1.464	17.7323	0
1.465	21.7269	0
1.466	24.7317	0
1.467	27.7266	0
1.468	29.7316	0
1.469	31.7268	0
1.47	33.732	0
1.471	32.7273	0
1.472	30.7328	0
1.473	27.7283	0
1.474	24.724	0
1.475	20.7297	0
1.476	14.7256	0
1.477	7.72154	0
1.478	1.72762	0
1.479	-3.27621	0
1.48	-6.27993	0
1.481	-9.27355	0
1.482	-12.2771	0
1.483	-15.2805	0
1.484	-15.2738	0
1.485	-13.277	0
1.486	-12.2801	0
1.487	-8.28315	0
1.488	-6.28608	0
1.489	-5.2789	0
1.49	-2.28163	0
1.491	-4.28426	0
1.492	-5.2868	0
1.493	-8.28924	0
1.494	-12.2816	0
1.495	-15.2838	0
1.496	-21.286	0
1.497	-29.2881	0
1.498	-33.2901	0
1.499	-38.2919	0
1.5	-40.2937	0
1.501	-42.2954	0
1.502	-44.2971	0
1.503	-46.2986	0
1.504	-46.3	0
1.505	-43.3014	0
1.506	-40.3027	0
1.507	-37.3038	0
1.508	-34.3049	0
1.509	-32.3059	0
1.51	-31.3069	0
1.511	-31.3077	0
1.512	-33.3085	0
1.513	-34.3091	0
1.514	-37.3097	0
1.515	-41.3103	0
1.516	-46.3107	0
1.517	-52.311	0
1.518	-57.3113	0
1.519	-59.3115	0
1.52	-61.3116	0
1.521	-64.3217	0
1.522	-66.3216	0
1.523	-66.3215	0
1.524	-64.3213	0
1.525	-60.3211	0
1.526	-56.3207	0
1.527	-52.3303	0
1.528	-50.3298	0
1.529	-47.3293	0
1.53	-47.3286	0
1.531	-44.3379	0
1.532	-44.3371	0
1.533	-46.3363	0
1.534	-47.3354	0
1.535	-49.3444	0
1.536	-55.3433	0
1.537	-58.3422	0
1.538	-62.341	0
1.539	-64.3498	0
1.54	-66.3485	0
1.541	-66.3471	0
1.542	-68.3556	0
1.543	-69.3541	0
1.544	-66.3525	0
1.545	-62.3609	0
1.546	-58.3592	0
1.547	-53.3574	0
1.548	-49.3656	0
1.549	-47.3637	0
1.55	-43.3718	0
1.551	-41.3698	0
1.552	-41.3677	0
1.553	-42.3756	0
1.554	-44.3734	0
1.555	-46.3812	0
1.556	-51.3789	0
1.557	-55.3865	0
1.558	-60.3841	0
1.559	-60.3817	0
1.56	-61.3891	0
1.561	-62.3866	0
1.562	-63.394	0
1.563	-64.3913	0
1.564	-62.3986	0
1.565	-58.3958	0
1.566	-53.403	0
1.567	-51.4001	0
1.568	-46.4072	0
1.569	-42.4042	0
1.57	-37.4112	0
1.571	-36.4081	0
1.572	-36.415	0
1.573	-37.4219	0
1.574	-37.4187	0
1.575	-40.4254	0
1.576	-44.4221	0
1.577	-49.4288	0
1.578	-52.4254	0
1.579	-54.432	0
1.58	-55.4385	0
1.581	-57.435	0
1.582	-58.4415	0
1.583	-58.4379	0
1.584	-57.4443	0
1.585	-52.4506	0
1.586	-47.4469	0
1.587	-41.4532	0
1.588	-38.4594	0
1.589	-33.4556	0
1.59	-32.4618	0
1.591	-30.4679	0
1.592	-31.464	0
1.593	-33.47	0
1.594	-34.4761	0
1.595	-37.472	0
1.596	-40.478	0
1.597	-45.4839	0
1.598	-49.4798	0
1.599	-51.4857	0
1.6	-52.4915	0
1.601	-52.4873	0
1.602	-54.4931	0
1.603	-53.4989	0
1.604	-51.5046	0
1.605	-46.5003	0
1.606	-42.506	0
1.607	-39.5116	0
1.608	-33.5072	0
1.609	-29.5128	0
1.61	-26.5184	0
1.611	-24.5239	0
1.612	-25.5195	0
1.613	-26.525	0
1.614	-27.5305	0
1.615	-31.5359	0
1.616	-34.5314	0
1.617	-38.5368	0
1.618	-43.5422	0
1.619	-46.5476	0
1.62	-47.543	0
1.621	-47.5483	0
1.622	-47.5537	0
1.623	-47.559	0
1.624	-46.5643	0
1.625	-41.5596	0
1.626	-37.5649	0
1.627	-34.5702	0
1.628	-30.5754	0
1.629	-27.5807	0
1.63	-23.5759	0
1.631	-22.5811	0
1.632	-23.5864	0
1.633	-22.5916	0
1.634	-25.5968	0
1.635	-27.592	0
1.636	-33.5971	0
1.637	-37.6023	0
1.638	-41.6075	0
1.639	-43.6126	0
1.64	-45.6178	0
1.641	-45.613	0
1.642	-46.6181	0
1.643	-45.6233	0
1.644	-43.6284	0
1.645	-39.6335	0
1.646	-34.6387	0
1.647	-32.6338	0
1.648	-28.639	0
1.649	-23.6441	0
1.65	-19.6492	0
1.651	-18.6544	0
1.652	-18.6595	0
1.653	-20.6547	0
1.654	-21.6598	0
1.655	-24.665	0
1.656	-29.6702	0
1.657	-34.6753	0
1.658	-39.6805	0
1.659	-42.6757	0
1.66	-43.6809	0
1.661	-45.6861	0
1.662	-46.6913	0
1.663	-46.6965	0
1.664	-43.7017	0
1.665	-38.7069	0
1.666	-34.7022	0
1.667	-29.7074	0
1.668	-27.7127	0
1.669	-24.718	0
1.67	-22.7233	0
1.671	-21.7286	0
1.672	-20.7339	0
1.673	-22.7292	0
1.674	-22.7346	0
1.675	-27.7399	0
1.676	-32.7453	0
1.677	-37.7507	0
1.678	-41.7561	0
1.679	-42.7516	0
1.68	-42.757	0
1.681	-43.7625	0
1.682	-44.768	0
1.683	-44.7735	0
1.684	-42.7791	0
1.685	-36.7846	0
1.686	-32.7802	0
1.687	-28.7858	0
1.688	-23.7915	0
1.689	-20.7971	0
1.69	-19.8028	0
1.691	-17.8085	0
1.692	-15.8043	0
1.693	-17.81	0
1.694	-21.8158	0
1.695	-22.8216	0
1.696	-27.8275	0
1.697	-30.8234	0
1.698	-34.8293	0
1.699	-36.8352	0
1.7	-38.8412	0
1.701	-40.8472	0
1.702	-40.8532	0
1.703	-40.8493	0
1.704	-38.8554	0
1.705	-34.8616	0
1.706	-28.8677	0
1.707	-24.874	0
1.708	-22.8702	0
1.709	-18.8765	0
1.71	-16.8828	0
1.711	-14.8892	0
1.712	-14.8856	0
1.713	-16.892	0
1.714	-19.8985	0
1.715	-22.905	0
1.716	-26.9116	0
1.717	-30.9082	0
1.718	-34.9148	0
1.719	-36.9215	0
1.72	-37.9283	0
1.721	-36.925	0
1.722	-38.9319	0
1.723	-38.9387	0
1.724	-36.9456	0
1.725	-32.9426	0
1.726	-27.9496	0
1.727	-22.9567	0
1.728	-20.9638	0
1.729	-16.9609	0
1.73	-14.9681	0
1.731	-12.9754	0
1.732	-13.9727	0
1.733	-13.98	0
1.734	-15.9875	0
1.735	-19.9849	0
1.736	-24.9924	0
1.737	-30	0
1.738	-34.0076	0
1.739	-37.0053	0
1.74	-37.0131	0
1.741	-39.0208	0
1.742	-39.0187	0
1.743	-39.0266	0
1.744	-36.0346	0
1.745	-33.0326	0
1.746	-28.0407	0
1.747	-24.0388	0
1.748	-22.047	0
1.749	-19.0553	0
1.75	-15.0536	0
1.751	-15.062	0
1.752	-14.0705	0
1.753	-16.069	0
1.754	-18.0776	0
1.755	-20.0762	0
1.756	-25.085	0
1.757	-29.0937	0
1.758	-34.0926	0
1.759	-34.1015	0
1.76	-35.1005	0
1.761	-35.1096	0
1.762	-37.1087	0
1.763	-36.1179	0
1.764	-33.1171	0
1.765	-29.1265	0
1.766	-25.1259	0
1.767	-20.1354	0
1.768	-16.1349	0
1.769	-14.1445	0
1.77	-11.1442	0
1.771	-10.154	0
1.772	-10.1539	0
1.773	-11.1638	0
1.774	-13.1638	0
1.775	-16.1739	0
1.776	-22.174	0
1.777	-27.1843	0
1.778	-31.1846	0
1.779	-33.195	0
1.78	-34.1955	0
1.781	-35.196	0
1.782	-37.2067	0
1.783	-36.2074	0
1.784	-33.2182	0
1.785	-30.2191	0
1.786	-24.22	0
1.787	-21.2311	0
1.788	-15.2322	0
1.789	-11.2435	0
1.79	-9.24478	0
1.791	-8.24619	0
1.792	-8.25768	0
1.793	-11.2593	0
1.794	-13.2609	0
1.795	-15.2727	0
1.796	-21.2745	0
1.797	-25.2765	0
1.798	-29.2785	0
1.799	-31.2906	0
1.8	-33.2928	0
1.801	-33.2951	0
1.802	-35.2975	0
1.803	-34.31	0
1.804	-31.3126	0
1.805	-26.3153	0
1.806	-21.3181	0
1.807	-16.321	0
1.808	-14.3339	0
1.809	-10.337	0
1.81	-6.34017	0
1.811	-7.34345	0
1.812	-7.34682	0
1.813	-8.35029	0
1.814	-12.3639	0
1.815	-13.3675	0
1.816	-18.3713	0
1.817	-23.3752	0
1.818	-27.3792	0
1.819	-29.3833	0
1.82	-29.3875	0
1.821	-31.3918	0
1.822	-33.3962	0
1.823	-33.4007	0
1.824	-29.4053	0
1.825	-25.41	0
1.826	-20.4149	0
1.827	-16.4198	0
1.828	-13.4248	0
1.829	-10.43	0
1.83	-7.43528	0
1.831	-6.44067	0
1.832	-7.44617	0
1.833	-7.45178	0
1.834	-9.4575	0
1.835	-13.4633	0
1.836	-16.4693	0
1.837	-22.4754	0
1.838	-25.4815	0
1.839	-25.4878	0
1.84	-27.4843	0
1.841	-27.4908	0
1.842	-29.4974	0
1.843	-27.5042	0
1.844	-24.5111	0
1.845	-19.5181	0
1.846	-15.5152	0
1.847	-10.5225	0
1.848	-7.52988	0
1.849	-4.53737	0
1.85	-2.53499	0
1.851	-1.54274	0
1.852	-2.5506	0
1.853	-4.5586	0
1.854	-6.55672	0
1.855	-8.56496	0
1.856	-13.5733	0
1.857	-19.5718	0
1.858	-24.5805	0
1.859	-24.5892	0
1.86	-26.5881	0
1.861	-28.5971	0
1.862	-28.5963	0
1.863	-27.6055	0
1.864	-23.6049	0
1.865	-18.6145	0
1.866	-14.6242	0
1.867	-10.624	0
1.868	-6.6339	0
1.869	-2.63397	0
1.87	-2.64418	0
1.871	-0.644527	0
1.872	-1.65501	0
1.873	-3.65563	0
1.874	-4.65639	0
1.875	-8.66728	0
1.876	-11.6683	0
1.877	-16.6795	0
1.878	-20.6808	0
1.879	-23.6823	0
1.88	-23.6939	0
1.881	-24.6956	0
1.882	-25.6975	0
1.883	-25.7095	0
1.884	-21.7117	0
1.885	-17.714	0
1.886	-12.7264	0
1.887	-8.72904	0
1.888	-4.73179	0
1.889	-0.734686	0
1.89	0.26227	0
1.891	2.24908	0
1.892	1.24574	0
1.893	-1.75775	0
1.894	-2.76139	0
1.895	-5.76518	0
1.896	-10.7691	0
1.897	-16.7832	0
1.898	-20.7875	0
1.899	-20.7919	0
1.9	-22.7964	0
1.901	-24.8011	0
1.902	-24.806	0
1.903	-23.811	0
1.904	-17.8162	0
1.905	-14.8215	0
1.906	-8.82699	0
1.907	-4.83263	0
1.908	-1.83844	0
1.909	3.1556	0
1.91	5.14948	0
1.911	6.1532	0
1.912	5.14676	0
1.913	4.14015	0
1.914	2.13338	0
1.915	-1.87355	0
1.916	-7.88064	0
1.917	-11.8879	0
1.918	-16.8853	0
1.919	-19.8929	0
1.92	-19.9007	0
1.921	-19.9086	0
1.922	-19.9067	0
1.923	-19.9149	0
1.924	-15.9233	0
1.925	-11.9219	0
1.926	-7.93068	0
1.927	-4.93961	0
1.928	-0.938715	0
1.929	3.05201	0
1.93	4.05257	0
1.931	6.04295	0
1.932	5.04316	0
1.933	2.0332	0
1.934	0.0230635	0
1.935	-2.97725	0
1.936	-6.98774	0
1.937	-12.9884	0
1.938	-16.9892	0
1.939	-19.0003	0
1.94	-22.0015	0
1.941	-23.0128	0
1.942	-24.0144	0
1.943	-24.0161	0
1.944	-19.028	0
1.945	-15.0301	0
1.946	-10.0324	0
1.947	-6.04486	0
1.948	-3.04751	0
1.949	0.949668	0
1.95	1.94666	0
1.951	2.93346	0
1.952	0.930084	0
1.953	-0.073482	0
1.954	-2.07723	0
1.955	-7.08117	0
1.956	-12.0853	0
1.957	-17.0996	0
1.958	-22.1041	0
1.959	-23.1088	0
1.96	-24.1137	0
1.961	-25.1188	0
1.962	-25.124	0
1.963	-23.1295	0
1.964	-18.1351	0
1.965	-15.141	0
1.966	-10.147	0
1.967	-5.15326	0
1.968	-3.14969	0
1.969	0.843684	0
1.97	2.83686	0
1.971	3.82985	0
1.972	2.82263	0
1.973	1.81522	0
1.974	-0.18239	0
1.975	-4.1902	0
1.976	-7.19821	0
1.977	-12.2064	0
1.978	-15.2048	0
1.979	-15.2134	0
1.98	-17.2223	0
1.981	-17.2213	0
1.982	-17.2305	0
1.983	-16.2399	0
1.984	-11.2396	0
1.985	-7.2494	0
1.986	-2.24944	0
1.987	1.74031	0
1.988	3.73985	0
1.989	7.72918	0
1.99	11.7283	0
1.991	12.7172	0
1.992	10.7159	0
1.993	9.70443	0
1.994	8.70272	0
1.995	4.70079	0
1.996	-0.311346	0
1.997	-6.3137	0
1.998	-10.3163	0
1.999	-10.329	0
2	-13.332	0
2.001	-14.3352	0
2.002	-15.3387	0
2.003	-14.3523	0
2.004	-9.35616	0
2.005	-5.36023	0
2.006	-0.364523	0
2.007	3.63097	0
2.008	6.62623	0
2.009	10.6213	0
2.01	11.6161	0
2.011	11.6107	0
2.012	9.6051	0
2.013	7.59927	0
2.014	4.59321	0
2.015	2.58692	0
2.016	-3.41959	0
2.017	-9.42632	0
2.018	-12.4333	0
2.019	-12.4405	0
2.02	-14.4479	0
2.021	-15.4455	0
2.022	-16.4534	0
2.023	-16.4615	0
2.024	-12.4698	0
2.025	-9.46836	0
2.026	-4.47715	0
2.027	-2.48617	0
2.028	0.514586	0
2.029	3.5051	0
2.03	6.49539	0
2.031	6.49544	0
2.032	3.48526	0
2.033	1.48485	0
2.034	-0.525805	0
2.035	-3.52669	0
2.036	-9.53782	0
2.037	-14.5392	0
2.038	-18.5508	0
2.039	-19.5526	0
2.04	-19.5647	0
2.041	-20.567	0
2.042	-21.5696	0
2.043	-21.5824	0
2.044	-18.5854	0
2.045	-13.5887	0
2.046	-8.5922	0
2.047	-5.60597	0
2.048	-2.60998	0
2.049	0.385768	0
2.05	2.38127	0
2.051	3.37652	0
2.052	2.37153	0
2.053	0.366292	0
2.054	-1.63919	0
2.055	-5.65493	0
2.056	-10.6609	0
2.057	-14.6671	0
2.058	-18.6636	0
2.059	-20.6704	0
2.06	-21.6773	0
2.061	-22.6846	0
2.062	-24.6921	0
2.063	-24.6998	0
2.064	-18.7078	0
2.065	-14.7161	0
2.066	-9.71456	0
2.067	-5.72332	0
2.068	-1.73234	0
2.069	0.268392	0
2.07	4.25886	0
2.071	4.24907	0
2.072	4.24903	0
2.073	2.23872	0
2.074	0.228157	0
2.075	-3.77267	0
2.076	-8.78376	0
2.077	-12.7851	0
2.078	-15.7967	0
2.079	-16.7986	0
2.08	-18.8007	0
2.081	-21.8131	0
2.082	-21.8158	0
2.083	-21.8287	0
2.084	-19.8319	0
2.085	-14.8354	0
2.086	-10.8491	0
2.087	-7.8531	0
2.088	-4.85737	0
2.089	0.138096	0
2.09	3.13329	0
2.091	3.11822	0
2.092	2.11287	0
2.093	1.10726	0
2.094	-0.898631	0
2.095	-4.90479	0
2.096	-11.9112	0
2.097	-15.9179	0
2.098	-20.9249	0
2.099	-22.9322	0
2.1	-21.9397	0
2.101	-23.9475	0
2.102	-23.9456	0
2.103	-23.954	0
2.104	-17.9626	0
2.105	-14.9715	0
2.106	-10.9807	0
2.107	-6.9802	0
2.108	-2.98996	0
2.109	0	0
2.11	0.999678	0
2.111	0.989074	0
2.112	-0.0218108	0
2.113	-2.02298	0
2.114	-5.03443	0
2.115	-13.0362	0
2.116	-20.0482	0
2.117	-28.0505	0
2.118	-36.063	0
2.119	-42.0659	0
2.12	-48.079	0
2.121	-55.0824	0
2.122	-61.0861	0
2.123	-64.1001	0
2.124	-65.1044	0
2.125	-62.1089	0
2.126	-58.1137	0
2.127	-54.1188	0
2.128	-49.1342	0
2.129	-43.1399	0
2.13	-38.1458	0
2.131	-33.1521	0
2.132	-33.1586	0
2.133	-31.1654	0
2.134	-33.1724	0
2.135	-35.1798	0
2.136	-38.1874	0
2.137	-38.1953	0
2.138	-30.2035	0
2.139	-14.212	0
2.14	11.7793	0
2.141	40.7802	0
2.142	72.7709	0
2.143	107.761	0
2.144	142.751	0
2.145	176.751	0
2.146	206.741	0
2.147	232.73	0
2.148	254.729	0
2.149	273.718	0
2.15	291.706	0
2.151	306.705	0
2.152	321.692	0
2.153	335.69	0
2.154	349.677	0
2.155	363.674	0
2.156	374.671	0
2.157	383.658	0
2.158	394.654	0
2.159	402.65	1
2.16	409.635	0
2.161	412.631	0
2.162	409.626	0
2.163	400.621	0
2.164	383.605	0
2.165	359.6	0
2.166	328.594	0
2.167	290.587	0
2.168	251.581	0
2.169	212.574	0
2.17	170.567	0
2.171	130.559	0
2.172	93.5516	0
2.173	63.5436	0
2.174	41.5353	0
2.175	23.5368	0
2.176	8.52801	0
2.177	-2.48107	0
2.178	-10.4904	0
2.179	-14.5001	0
2.18	-18.5	0
2.181	-22.5102	0
2.182	-28.5207	0
2.183	-29.5214	0
2.184	-27.5325	0
2.185	-26.5338	0
2.186	-23.5454	0
2.187	-22.5472	0
2.188	-20.5594	0
2.189	-18.5618	0
2.19	-19.5745	0
2.191	-21.5775	0
2.192	-23.5907	0
2.193	-28.5943	0
2.194	-31.5981	0
2.195	-38.6022	0
2.196	-44.6165	0
2.197	-49.6212	0
2.198	-54.6261	0
2.199	-58.6313	0
2.2	-60.6368	0
2.201	-62.6425	0
2.202	-64.6486	0
2.203	-64.6549	0
2.204	-61.6615	0
2.205	-58.6683	0
2.206	-53.6755	0
2.207	-49.6829	0
2.208	-46.6906	0
2.209	-45.6986	0
2.21	-41.7068	0
2.211	-41.7153	0
2.212	-43.7141	0
2.213	-44.7232	0
2.214	-45.7326	0
2.215	-51.7322	0
2.216	-55.7421	0
2.217	-61.7523	0
2.218	-64.7527	0
2.219	-65.7635	0
2.22	-67.7645	0
2.221	-68.7758	0
2.222	-68.7774	0
2.223	-67.7892	0
2.224	-62.7913	0
2.225	-58.7937	0
2.226	-53.8064	0
2.227	-49.8093	0
2.228	-45.8125	0
2.229	-41.816	0
2.23	-39.8298	0
2.231	-38.8339	0
2.232	-39.8382	0
2.233	-41.8428	0
2.234	-43.8477	0
2.235	-49.8528	0
2.236	-54.8583	0
2.237	-58.864	0
2.238	-61.8699	0
2.239	-62.8762	0
2.24	-63.8827	0
2.241	-65.8895	0
2.242	-66.8966	0
2.243	-65.894	0
2.244	-60.9016	0
2.245	-57.9095	0
2.246	-52.9177	0
2.247	-48.9162	0
2.248	-44.9249	0
2.249	-39.9239	0
2.25	-38.9332	0
2.251	-37.9427	0
2.252	-38.9426	0
2.253	-40.9527	0
2.254	-41.9531	0
2.255	-47.9537	0
2.256	-51.9646	0
2.257	-55.9659	0
2.258	-59.9773	0
2.259	-59.9791	0
2.26	-61.9811	0
2.261	-61.9834	0
2.262	-61.986	0
2.263	-60.9989	0
2.264	-54.002	0
2.265	-51.0054	0
2.266	-47.0091	0
2.267	-41.013	0
2.268	-37.0172	0
2.269	-32.0217	0
2.27	-31.0265	0
2.271	-31.0315	0
2.272	-32.0369	0
2.273	-32.0324	0
2.274	-34.0383	0
2.275	-39.0445	0
2.276	-43.0509	0
2.277	-49.0476	0
2.278	-51.0545	0
2.279	-53.0618	0
2.28	-54.0593	0
2.281	-55.067	0
2.282	-55.0751	0
2.283	-54.0734	0
2.284	-49.082	0
2.285	-44.0809	0
2.286	-40.08	0
2.287	-36.0895	0
2.288	-30.0892	0
2.289	-28.0891	0
2.29	-25.0994	0
2.291	-24.0999	0
2.292	-25.1007	0
2.293	-26.1017	0
2.294	-26.1131	0
2.295	-31.1147	0
2.296	-36.1165	0
2.297	-42.1187	0
2.298	-43.1211	0
2.299	-43.1238	0
2.3	-45.1268	0
2.301	-46.13	0
2.302	-45.1335	0
2.303	-43.1273	0
2.304	-39.1314	0
2.305	-34.1357	0
2.306	-29.1403	0
2.307	-24.1452	0
2.308	-19.1403	0
2.309	-13.1457	0
2.31	-13.1414	0
2.311	-13.1474	0
2.312	-13.1536	0
2.313	-15.1501	0
2.314	-17.1569	0
2.315	-22.154	0
2.316	-28.1613	0
2.317	-32.1589	0
2.318	-34.1567	0
2.319	-35.1649	0
2.32	-36.1633	0
2.321	-37.162	0
2.322	-37.1609	0
2.323	-35.1701	0
2.324	-31.1696	0
2.325	-27.1694	0
2.326	-22.1694	0
2.327	-18.1697	0
2.328	-13.1703	0
2.329	-8.17115	0
2.33	-5.17227	0
2.331	-5.17366	0
2.332	-4.17532	0
2.333	-7.17726	0
2.334	-10.1695	0
2.335	-12.1719	0
2.336	-17.1747	0
2.337	-21.1777	0
2.338	-24.171	0
2.339	-26.1745	0
2.34	-25.1784	0
2.341	-26.1725	0
2.342	-26.1768	0
2.343	-24.1715	0
2.344	-19.1764	0
2.345	-13.1716	0
2.346	-7.17702	0
2.347	-2.17274	0
2.348	1.83127	0
2.349	5.82501	0
2.35	8.82848	0
2.351	8.83168	0
2.352	9.83461	0
2.353	8.82727	0
2.354	6.82965	0
2.355	2.83177	0
2.356	-1.16638	0
2.357	-5.1648	0
2.358	-6.16349	0
2.359	-7.16245	0
2.36	-7.16168	0
2.361	-8.16118	0
2.362	-7.16094	0
2.363	-5.15098	0
2.364	-1.15129	0
2.365	5.84813	0
2.366	10.8473	0
2.367	15.8562	0
2.368	19.8548	0
2.369	23.8531	0
2.37	26.8612	0
2.371	28.859	0
2.372	27.8666	0
2.373	26.8638	0
2.374	23.8708	0
2.375	21.8676	0
2.376	16.874	0
2.377	10.8802	0
2.378	9.87615	0
2.379	9.88181	0
2.38	8.88719	0
2.381	8.89231	0
2.382	7.88717	0
2.383	10.8917	0
2.384	15.8961	0
2.385	20.9001	0
2.386	24.9039	0
2.387	29.9074	0
2.388	34.9106	0
2.389	37.9136	0
2.39	39.9163	0
2.391	38.9188	0
2.392	38.9209	0
2.393	39.9328	0
2.394	36.9345	0
2.395	30.9358	0
2.396	25.9469	0
2.397	21.9477	0
2.398	18.9483	0
2.399	15.9586	0
2.4	15.9586	0
2.401	13.9684	0
2.402	14.9679	0
2.403	17.9771	0
2.404	22.9761	0
2.405	27.9847	0
2.406	31.9932	0
2.407	35.9913	0
2.408	39.9992	0
2.409	43.0068	0
2.41	45.0142	0
2.411	45.0113	0
2.412	43.0181	0
2.413	40.0246	0
2.414	36.0309	0
2.415	32.0369	0
2.416	27.0427	0
2.417	22.0482	0
2.418	18.0534	0
2.419	16.0583	0
2.42	12.063	0
2.421	10.0774	0
2.422	8.08158	0
2.423	10.0855	0
2.424	12.0891	0
2.425	16.1024	0
2.426	20.1055	0
2.427	21.1183	0
2.428	25.1209	0
2.429	27.1232	0
2.43	27.1352	0
2.431	26.1369	0
2.432	23.1484	0
2.433	19.1596	0
2.434	16.1606	0
2.435	9.17128	0
2.436	2.1817	0
2.437	-4.81814	0
2.438	-9.80825	0
2.439	-11.7986	0
2.44	-14.7893	0
2.441	-15.7802	0
2.442	-19.7713	0
2.443	-19.7628	0
2.444	-17.7545	0
2.445	-16.7465	0
2.446	-12.7387	0
2.447	-9.73119	0
2.448	-7.72396	0
2.449	-6.71699	0
2.45	-6.71028	0
2.451	-9.69384	0
2.452	-11.6877	0
2.453	-14.6818	0
2.454	-18.6661	0
2.455	-25.6607	0
2.456	-32.6556	0
2.457	-37.6408	0
2.458	-41.6362	0
2.459	-44.6219	0
2.46	-47.6178	0
2.461	-49.604	0
2.462	-51.5905	0
2.463	-49.5872	0
2.464	-48.5742	0
2.465	-45.5615	0
2.466	-42.5491	0
2.467	-39.5468	0
2.468	-36.5349	0
2.469	-34.5232	0
2.47	-35.5118	0
2.471	-35.5007	0
2.472	-37.4898	0
2.473	-39.4792	0
2.474	-43.4688	0
2.475	-49.4587	0
2.476	-55.4489	0
2.477	-61.4394	0
2.478	-65.4201	0
2.479	-67.411	0
2.48	-69.4023	0
2.481	-70.3938	0
2.482	-70.3755	0
2.483	-68.3675	0
2.484	-64.3498	0
2.485	-61.3424	0
2.486	-56.3352	0
2.487	-53.3183	0
2.488	-49.3016	0
2.489	-47.2952	0
2.49	-45.2791	0
2.491	-45.2732	0
2.492	-46.2576	0
2.493	-47.2422	0
2.494	-51.2272	0
2.495	-56.2223	0
2.496	-61.2078	0
2.497	-66.1935	0
2.498	-68.1795	0
2.499	-70.1657	0
2.5	-72.1522	0
2.501	-73.139	0
2.502	-74.126	0
2.503	-72.1133	0
2.504	-69.1008	0
2.505	-63.0886	0
2.506	-57.0667	0
2.507	-54.055	0
2.508	-50.0436	0
2.509	-46.0325	0
2.51	-44.0116	0
2.511	-43.001	0
2.512	-44.9807	0
2.513	-44.9706	0
2.514	-48.9607	0
2.515	-52.9412	0
2.516	-56.9219	0
2.517	-60.9128	0
2.518	-63.894	0
2.519	-64.8855	0
2.52	-66.8673	0
2.521	-67.8493	0
2.522	-67.8315	0
2.523	-64.8241	0
2.524	-59.8069	0
2.525	-55.7899	0
2.526	-50.7732	0
2.527	-46.7568	0
2.528	-41.7406	0
2.529	-38.7247	0
2.53	-35.7091	0
2.531	-35.6937	0
2.532	-37.6786	0
2.533	-38.6637	0
2.534	-42.6391	0
2.535	-47.6248	0
2.536	-54.6107	0
2.537	-57.5969	0
2.538	-59.5734	0
2.539	-62.5601	0
2.54	-61.547	0
2.541	-63.5243	0
2.542	-64.5118	0
2.543	-61.4895	0
2.544	-57.4775	0
2.545	-52.4558	0
2.546	-49.4343	0
2.547	-42.4231	0
2.548	-37.4022	0
2.549	-33.3815	0
2.55	-32.3711	0
2.551	-32.3509	0
2.552	-31.331	0
2.553	-32.3114	0
2.554	-35.292	0
2.555	-40.2729	0
2.556	-46.254	0
2.557	-50.2354	0
2.558	-52.2171	0
2.559	-54.199	0
2.56	-54.1812	0
2.561	-56.1636	0
2.562	-55.1463	0
2.563	-52.1293	0
2.564	-48.1025	0
2.565	-43.086	0
2.566	-38.0697	0
2.567	-34.0437	0
2.568	-30.028	0
2.569	-26.0125	0
2.57	-23.9872	0
2.571	-23.9723	0
2.572	-24.9476	0
2.573	-25.9231	0
2.574	-28.9089	0
2.575	-33.885	0
2.576	-38.8713	0
2.577	-43.8479	0
2.578	-45.8248	0
2.579	-48.8019	0
2.58	-49.7893	0
2.581	-53.7669	0
2.582	-51.7448	0
2.583	-49.7229	0
2.584	-46.7013	0
2.585	-40.68	0
2.586	-34.6589	0
2.587	-29.6381	0
2.588	-24.6175	0
2.589	-21.5972	0
2.59	-20.5672	0
2.591	-21.5474	0
2.592	-21.5278	0
2.593	-24.5086	0
2.594	-25.4796	0
2.595	-30.4608	0
2.596	-36.4423	0
2.597	-42.4141	0
2.598	-44.3961	0
2.599	-46.3684	0
2.6	-47.3509	0
2.601	-47.3237	0
2.602	-47.3067	0
2.603	-46.2801	0
2.604	-40.2536	0
2.605	-36.2374	0
2.606	-33.2115	0
2.607	-27.1859	0
2.608	-22.1705	0
2.609	-19.1453	0
2.61	-18.1204	0
2.611	-17.0958	0
2.612	-19.0714	0
2.613	-20.0473	0
2.614	-24.0235	0
2.615	-27.9999	0
2.616	-33.9765	0
2.617	-37.9534	0
2.618	-39.9306	0
2.619	-41.898	0
2.62	-41.8757	0
2.621	-43.8537	0
2.622	-45.8319	0
2.623	-43.8003	0
2.624	-40.779	0
2.625	-36.758	0
2.626	-31.7272	0
2.627	-26.7067	0
2.628	-20.6765	0
2.629	-17.6565	0
2.63	-15.6267	0
2.631	-15.6072	0
2.632	-17.578	0
2.633	-18.549	0
2.634	-20.5303	0
2.635	-25.5018	0
2.636	-30.4736	0
2.637	-35.4457	0
2.638	-39.428	0
2.639	-39.4005	0
2.64	-40.3733	0
2.641	-42.3464	0
2.642	-41.3197	0
2.643	-39.2933	0
2.644	-34.2672	0
2.645	-29.2413	0
2.646	-25.2156	0
2.647	-21.1902	0
2.648	-16.1551	0
2.649	-14.1302	0
2.65	-12.1056	0
2.651	-12.0812	0
2.652	-14.0471	0
2.653	-14.0232	0
2.654	-18.9996	0
2.655	-21.9663	0
2.656	-26.9432	0
2.657	-31.9103	0
2.658	-33.8878	0
2.659	-35.8554	0
2.66	-37.8334	0
2.661	-39.8015	0
2.662	-39.77	0
2.663	-36.7487	0
2.664	-32.7176	0
2.665	-27.6868	0
2.666	-22.6563	0
2.667	-17.636	0
2.668	-13.606	0
2.669	-9.57618	0
2.67	-7.54665	0
2.671	-8.51738	0
2.672	-9.48837	0
2.673	-10.4596	0
2.674	-14.4311	0
2.675	-18.4028	0
2.676	-25.3749	0
2.677	-30.3471	0
2.678	-34.3096	0
2.679	-35.2824	0
2.68	-36.2554	0
2.681	-37.2287	0
2.682	-37.1922	0
2.683	-34.166	0
2.684	-30.14	0
2.685	-25.1043	0
2.686	-21.0789	0
2.687	-14.0436	0
2.688	-10.0187	0
2.689	-6.984	0
2.69	-5.94956	0
2.691	-6.92537	0
2.692	-7.89144	0
2.693	-8.86775	0
2.694	-11.8343	0
2.695	-16.8012	0
2.696	-23.7682	0
2.697	-27.7356	0
2.698	-29.7131	0
2.699	-29.681	0
2.7	-31.6491	0
2.701	-33.6174	0
2.702	-33.586	0
2.703	-31.5549	0
2.704	-26.524	0
2.705	-21.4933	0
2.706	-16.4629	0
2.707	-11.4228	0
2.708	-7.39291	0
2.709	-2.36328	0
2.71	-1.3339	0
2.711	-1.29478	0
2.712	-2.2659	0
2.713	-4.23728	0
2.714	-5.19891	0
2.715	-11.1708	0
2.716	-16.1429	0
2.717	-22.1053	0
2.718	-24.078	0
2.719	-25.0408	0
2.72	-26.004	0
2.721	-26.9774	0
2.722	-26.941	0
2.723	-24.9049	0
2.724	-19.8791	0
2.725	-15.8435	0
2.726	-11.8082	0
2.727	-6.77306	0
2.728	-1.74822	0
2.729	1.28637	0
2.73	2.3207	0
2.731	2.35479	0
2.732	1.38862	0
2.733	-1.5778	0
2.734	-4.54447	0
2.735	-8.51139	0
2.736	-13.4786	0
2.737	-19.446	0
2.738	-22.4037	0
2.739	-22.3716	0
2.74	-23.3398	0
2.741	-24.3082	0
2.742	-24.2769	0
2.743	-20.2358	0
2.744	-17.205	0
2.745	-12.1644	0
2.746	-8.13411	0
2.747	-4.10404	0
2.748	-0.0642304	0
2.749	2.96533	0
2.75	5.00464	0
2.751	4.04371	0
2.752	3.07252	0
2.753	3.11108	0
2.754	-0.860612	0
2.755	-5.82255	0
2.756	-13.7847	0
2.757	-17.7472	0
2.758	-18.7199	0
2.759	-20.6828	0
2.76	-22.646	0
2.761	-23.6095	0
2.762	-23.5731	0
2.763	-19.5371	0
2.764	-16.5013	0
2.765	-12.4657	0
2.766	-6.43042	0
2.767	-2.39536	0
2.768	2.63944	0
2.769	5.674	0
2.77	6.70831	0
2.771	6.75237	0
2.772	4.78618	0
2.773	3.81973	0
2.774	-0.146956	0
2.775	-5.1039	0
2.776	-11.0711	0
2.777	-16.0385	0
2.778	-18.9962	0
2.779	-22.9642	0
2.78	-22.9223	0
2.781	-23.8908	0
2.782	-24.8495	0
2.783	-20.8184	0
2.784	-16.7776	0
2.785	-10.737	0
2.786	-6.7067	0
2.787	-2.66663	0
2.788	4.37319	0
2.789	5.40276	0
2.79	7.44208	0
2.791	6.48116	0
2.792	4.51998	0
2.793	5.55856	0
2.794	0.596887	0
2.795	-4.36503	0
2.796	-11.3272	0
2.797	-17.2896	0
2.798	-19.2523	0
2.799	-19.2152	0
2.8	-21.1784	0
2.801	-23.1418	0
2.802	-24.1054	0
2.803	-21.0693	0
2.804	-18.0335	0
2.805	-12.9879	0
2.806	-8.95256	0
2.807	-4.91746	0
2.808	1.1174	0
2.809	5.162	0
2.81	6.19636	0
2.811	6.24047	0
2.812	5.27433	0
2.813	3.31794	0
2.814	-1.64869	0
2.815	-6.60558	0
2.816	-13.5727	0
2.817	-18.5301	0
2.818	-19.4977	0
2.819	-22.4556	0
2.82	-23.4137	0
2.821	-25.3821	0
2.822	-24.3407	0
2.823	-21.2995	0
2.824	-16.2586	0
2.825	-11.218	0
2.826	-5.18761	0
2.827	-1.14746	0
2.828	3.89245	0
2.829	5.9321	0
2.83	6.97151	0
2.831	7.01068	0
2.832	5.04959	0
2.833	4.08826	0
2.834	1.12668	0
2.835	-2.83514	0
2.836	-7.79721	0
2.837	-12.7495	0
2.838	-14.7121	0
2.839	-17.6749	0
2.84	-18.638	0
2.841	-20.5913	0
2.842	-19.5548	0
2.843	-15.5186	0
2.844	-13.4726	0
2.845	-8.43693	0
2.846	-5.40147	0
2.847	0.643755	0
2.848	3.67873	0
2.849	6.72346	0
2.85	6.75794	0
2.851	6.80218	0
2.852	6.84617	0
2.853	6.87991	0
2.854	2.92341	0
2.855	-2.03333	0
2.856	-7.00033	0
2.857	-12.9576	0
2.858	-15.915	0
2.859	-15.8728	0
2.86	-17.8407	0
2.861	-18.799	0
2.862	-19.7574	0
2.863	-15.7161	0
2.864	-11.6751	0
2.865	-6.6343	0
2.866	-2.59374	0
2.867	2.44657	0
2.868	7.48663	0
2.869	9.52645	0
2.87	11.566	0
2.871	10.6054	0
2.872	9.64444	0
2.873	9.69328	0
2.874	4.73188	0
2.875	-0.229774	0
2.876	-5.19167	0
2.877	-10.1538	0
2.878	-12.1062	0
2.879	-13.0688	0
2.88	-14.0317	0
2.881	-15.9848	0
2.882	-14.9482	0
2.883	-12.9018	0
2.884	-7.86562	0
2.885	-3.81971	0
2.886	0.215947	0
2.887	4.26137	0
2.888	9.29654	0
2.889	10.3415	0
2.89	12.3862	0
2.891	11.4206	0
2.892	11.4648	0
2.893	8.50875	0
2.894	5.54246	0
2.895	0.585928	0
2.896	-5.37085	0
2.897	-9.32787	0
2.898	-12.2851	0
2.899	-13.2526	0
2.9	-13.2104	0
2.901	-15.1684	0
2.902	-13.1266	0
2.903	-11.0851	0
2.904	-8.04383	0
2.905	-2.0028	0
2.906	2.03799	0
2.907	6.07854	0
2.908	11.1188	0
2.909	13.1589	0
2.91	14.2087	0
2.911	14.2483	0
2.912	13.2876	0
2.913	11.3267	0
2.914	9.36556	0
2.915	4.41416	0
2.916	-2.54748	0
2.917	-7.50936	0
2.918	-8.46149	0
2.919	-11.4239	0
2.92	-13.3765	0
2.921	-15.3393	0
2.922	-16.3024	0
2.923	-13.2558	0
2.924	-11.2193	0
2.925	-5.17316	0
2.926	-0.137221	0
2.927	4.90847	0
2.928	9.95392	0
2.929	13.9891	0
2.93	14.0341	0
2.931	14.0788	0
2.932	14.1133	0
2.933	10.1575	0
2.934	7.20155	0
2.935	3.23531	0
2.936	-2.72118	0
2.937	-6.6779	0
2.938	-8.63487	0
2.939	-9.59208	0
2.94	-11.5495	0
2.941	-12.5072	0
2.942	-10.4652	0
2.943	-8.43333	0
2.944	-3.39175	0
2.945	0.649593	0
2.946	4.70069	0
2.947	7.74155	0
2.948	12.7822	0
2.949	14.8226	0
2.95	15.8627	0
2.951	13.9026	0
2.952	13.9422	0
2.953	12.9817	0
2.954	10.0308	0
2.955	6.06975	0
2.956	1.10845	0
2.957	-2.8531	0
2.958	-6.80489	0
2.959	-8.76693	0
2.96	-7.7292	0
2.961	-10.6817	0
2.962	-10.6445	0
2.963	-7.59745	0
2.964	-2.56069	0
2.965	2.48584	0
2.966	6.52212	0
2.967	11.5682	0
2.968	16.604	0
2.969	17.6495	0
2.97	18.6849	0
2.971	17.73	0
2.972	16.7748	0
2.973	14.8094	0
2.974	10.8538	0
2.975	4.89789	0
2.976	-1.06822	0
2.977	-6.02457	0
2.978	-8.98117	0
2.979	-10.938	0
2.98	-12.9051	0
2.981	-13.8624	0
2.982	-12.8199	0
2.983	-9.77773	0
2.984	-6.73576	0
2.985	-1.69403	0
2.986	2.34746	0
2.987	6.38871	0
2.988	10.4297	0
2.989	14.4705	0
2.99	15.511	0
2.991	15.5513	0
2.992	14.5914	0
2.993	12.6312	0
2.994	10.6708	0
2.995	6.71011	0
2.996	-0.250791	0
2.997	-4.21193	0
2.998	-6.16331	0
2.999	-9.12492	0
3	-10.0868	0
3.001	-11.0489	0
3.002	-9.00121	0
3.003	-5.96378	0
3.004	1.07341	0
3.005	6.12037	0
3.006	12.1571	0
3.007	18.1936	0
3.008	24.2398	0
3.009	25.2758	0
3.01	28.3216	0
3.011	27.3571	0
3.012	27.4024	0
3.013	26.4374	0
3.014	21.4822	0
3.015	15.5168	0
3.016	10.5611	0
3.017	6.59522	0
3.018	4.63907	0
3.019	4.68269	0
3.02	4.71608	0
3.021	1.75922	0
3.022	2.80213	0
3.023	5.8348	0
3.024	9.87723	0
3.025	13.9194	0
3.026	17.9614	0
3.027	22.9931	0
3.028	27.0346	0
3.029	29.0758	0
3.03	30.1168	0
3.031	30.1576	0
3.032	28.1981	0
3.033	25.2284	0
3.034	22.2685	0
3.035	16.3083	0
3.036	10.3479	0
3.037	5.38725	0
3.038	3.42637	0
3.039	1.46524	0
3.04	1.50388	0
3.041	-0.457718	0
3.042	-1.41955	0
3.043	2.61838	0
3.044	4.66607	0
3.045	9.70352	0
3.046	12.7407	0
3.047	16.7777	0
3.048	22.8145	0
3.049	22.851	0
3.05	22.8973	0
3.051	22.9333	0
3.052	20.9691	0
3.053	19.0047	0
3.054	13.05	0
3.055	7.08509	0
3.056	1.11995	0
3.057	-2.83543	0
3.058	-5.80105	0
3.059	-6.7669	0
3.06	-8.72298	0
3.061	-8.6893	0
3.062	-6.64586	0
3.063	-5.61265	0
3.064	0.42032	0
3.065	3.46306	0
3.066	7.49556	0
3.067	13.5378	0
3.068	18.5799	0
3.069	20.6116	0
3.07	22.6532	0
3.071	21.6845	0
3.072	20.7256	0
3.073	19.7565	0
3.074	16.7971	0
3.075	9.83748	0
3.076	3.86763	0
3.077	0.907544	0
3.078	-1.05278	0
3.079	-5.02333	0
3.08	-5.98412	0
3.081	-6.94515	0
3.082	-5.90641	0
3.083	-3.8779	0
3.084	-0.83963	0
3.085	4.19841	0
3.086	9.23621	0
3.087	13.2738	0
3.088	18.3111	0
3.089	20.3482	0
3.09	21.3751	0
3.091	22.4117	0
3.092	23.4481	0
3.093	21.4843	0
3.094	17.5202	0
3.095	11.5559	0
3.096	6.59134	0
3.097	2.62657	0
3.098	-1.33844	0
3.099	-1.30368	0
3.1	-2.26915	0
3.101	-4.23486	0
3.102	-4.20081	0
3.103	-1.16698	0
3.104	2.87661	0
3.105	7.90996	0
3.106	11.9431	0
3.107	16.976	0
3.108	22.0086	0
3.109	23.0411	0
3.11	24.0832	0
3.111	22.1152	0
3.112	23.1469	0
3.113	21.1784	0
3.114	17.2097	0
3.115	11.2507	0
3.116	5.28148	0
3.117	1.31204	0
3.118	0.35236	0
3.119	-1.61755	0
3.12	-3.58769	0
3.121	-5.54807	0
3.122	-3.51867	0
3.123	-0.489512	0
3.124	4.54942	0
3.125	8.57811	0
3.126	12.6166	0
3.127	16.6448	0
3.128	20.6728	0
3.129	24.7106	0
3.13	25.7381	0
3.131	23.7754	0
3.132	22.8025	0
3.133	21.8393	0
3.134	15.8659	0
3.135	11.9023	0
3.136	6.93842	0
3.137	2.96432	0
3.138	0	0
3.139	-1.97456	0
3.14	-3.93934	0
3.141	-5.91436	0
3.142	-4.87961	0
3.143	-3.84509	0
3.144	-0.820791	0
3.145	1.21328	0
3.146	3.24712	0
3.147	4.27073	0
3.148	3.30412	0
3.149	0.337284	0
3.15	-4.62978	0
3.151	-9.60706	0
3.152	-15.5746	0
3.153	-21.5423	0
3.154	-28.5102	0
3.155	-33.4884	0
3.156	-40.4568	0
3.157	-43.4254	0
3.158	-44.3942	0
3.159	-43.3633	0
3.16	-42.3325	0
3.161	-41.312	0
3.162	-36.2817	0
3.163	-30.2516	0
3.164	-25.2217	0
3.165	-18.1921	0
3.166	-11.1626	0
3.167	0.866646	0
3.168	17.8957	0
3.169	39.9245	0
3.17	66.9531	0
3.171	96.9815	0
3.172	129.01	0
3.173	161.038	0
3.174	190.065	0
3.175	213.093	0
3.176	233.12	0
3.177	252.148	0
3.178	268.175	0
3.179	285.201	0
3.18	299.228	0
3.181	311.254	0
3.182	327.28	0
3.183	345.306	0
3.184	366.332	0
3.185	385.358	0
3.186	406.383	0
3.187	425.418	0
3.188	441.443	1
3.189	451.468	0
3.19	458.492	0
3.191	459.517	0
3.192	455.541	0
3.193	438.575	0
3.194	411.599	0
3.195	376.622	0
3.196	333.646	0
3.197	288.669	0
3.198	242.702	0
3.199	194.725	0
3.2	152.748	0
3.201	113.77	0
3.202	81.8025	0
3.203	59.8246	0
3.204	45.8465	0
3.205	36.8682	0
3.206	32.8998	0
3.207	32.9211	0
3.208	32.9423	0
3.209	31.9733	0
3.21	29.9942	0
3.211	26.0148	0
3.212	22.0453	0
3.213	16.0656	0
3.214	11.0957	0
3.215	3.11562	0
3.216	-3.86462	0
3.217	-9.83504	0
3.218	-13.8156	0
3.219	-19.7864	0
3.22	-23.7673	0
3.221	-27.7484	0
3.222	-27.7197	0
3.223	-27.7012	0
3.224	-26.6728	0
3.225	-23.6546	0
3.226	-19.6266	0
3.227	-16.6087	0
3.228	-13.581	0
3.229	-12.5635	0
3.23	-13.5361	0
3.231	-14.5189	0
3.232	-15.4918	0
3.233	-20.475	0
3.234	-24.4483	0
3.235	-31.4317	0
3.236	-36.4053	0
3.237	-41.3891	0
3.238	-45.363	0
3.239	-47.3471	0
3.24	-49.3214	0
3.241	-49.3058	0
3.242	-49.2804	0
3.243	-47.2651	0
3.244	-43.24	0
3.245	-39.215	0
3.246	-35.2002	0
3.247	-30.1755	0
3.248	-25.161	0
3.249	-23.1367	0
3.25	-22.1125	0
3.251	-23.0984	0
3.252	-23.0745	0
3.253	-25.0508	0
3.254	-30.0372	0
3.255	-34.0137	0
3.256	-39.0004	0
3.257	-41.9773	0
3.258	-44.9543	0
3.259	-46.9414	0
3.26	-48.9187	0
3.261	-47.8961	0
3.262	-45.8837	0
3.263	-41.8614	0
3.264	-38.8392	0
3.265	-34.8172	0
3.266	-29.8053	0
3.267	-24.7836	0
3.268	-19.762	0
3.269	-17.7505	0
3.27	-16.7292	0
3.271	-17.708	0
3.272	-18.697	0
3.273	-21.6761	0
3.274	-26.6553	0
3.275	-30.6347	0
3.276	-34.6241	0
3.277	-37.6038	0
3.278	-39.5835	0
3.279	-40.5634	0
3.28	-40.5534	0
3.281	-40.5336	0
3.282	-39.5138	0
3.283	-36.4942	0
3.284	-32.4847	0
3.285	-28.4654	0
3.286	-24.4462	0
3.287	-16.4271	0
3.288	-13.4081	0
3.289	-7.39924	0
3.29	-6.38051	0
3.291	-6.36191	0
3.292	-7.34342	0
3.293	-9.33506	0
3.294	-14.3168	0
3.295	-20.2987	0
3.296	-24.2807	0
3.297	-28.2628	0
3.298	-29.255	0
3.299	-29.2374	0
3.3	-31.2198	0
3.301	-31.2024	0
3.302	-29.1851	0
3.303	-26.1679	0
3.304	-23.1608	0
3.305	-17.1438	0
3.306	-12.1269	0
3.307	-6.11018	0
3.308	-2.09354	0
3.309	-0.0870011	0
3.31	0.929427	0
3.311	0.945748	0
3.312	-1.03804	0
3.313	-2.02193	0
3.314	-6.00593	0
3.315	-13	0
3.316	-16.9842	0
3.317	-20.9685	0
3.318	-22.953	0
3.319	-23.9375	0
3.32	-23.9221	0
3.321	-23.9068	0
3.322	-22.9016	0
3.323	-20.8865	0
3.324	-15.8715	0
3.325	-11.8566	0
3.326	-6.84184	0
3.327	-0.82714	0
3.328	3.17746	0
3.329	6.19198	0
3.33	7.20639	0
3.331	7.22072	0
3.332	5.23495	0
3.333	5.24909	0
3.334	1.26314	0
3.335	-3.7329	0
3.336	-7.71903	0
3.337	-9.70525	0
3.338	-11.6916	0
3.339	-12.678	0
3.34	-14.6644	0
3.341	-16.651	0
3.342	-14.6476	0
3.343	-12.6344	0
3.344	-6.6212	0
3.345	-0.608104	0
3.346	4.40491	0
3.347	11.4178	0
3.348	15.4207	0
3.349	18.4335	0
3.35	20.4462	0
3.351	19.4588	0
3.352	19.4713	0
3.353	16.4838	0
3.354	13.4862	0
3.355	7.49848	0
3.356	2.51072	0
3.357	-0.477119	0
3.358	-0.465032	0
3.359	-3.45302	0
3.36	-5.45107	0
3.361	-5.4392	0
3.362	-4.4274	0
3.363	0.58433	0
3.364	4.59599	0
3.365	9.60759	0
3.366	14.6091	0
3.367	21.6206	0
3.368	24.632	0
3.369	26.6433	0
3.37	27.6546	0
3.371	28.6558	0
3.372	28.6669	0
3.373	26.678	0
3.374	23.689	0
3.375	16.6999	0
3.376	12.7008	0
3.377	10.7116	0
3.378	7.72241	0
3.379	7.73313	0
3.38	7.74378	0
3.381	7.74438	0
3.382	9.75492	0
3.383	13.7654	0
3.384	16.7758	0
3.385	21.7762	0
3.386	26.7865	0
3.387	31.7968	0
3.388	36.807	0
3.389	39.8072	0
3.39	40.8173	0
3.391	41.8274	0
3.392	41.8374	0
3.393	39.8374	0
3.394	36.8473	0
3.395	31.8572	0
3.396	26.857	0
3.397	24.8668	0
3.398	21.8766	0
3.399	20.8863	0
3.4	20.8859	0
3.401	20.8955	0
3.402	22.9051	0
3.403	27.9046	0
3.404	32.9141	0
3.405	37.9236	0
3.406	41.923	0
3.407	47.9324	0
3.408	51.9417	0
3.409	55.941	0
3.41	55.9503	0
3.411	55.9595	0
3.412	55.9587	0
3.413	52.9679	0
3.414	49.977	0
3.415	44.9761	0
3.416	41.9852	0
3.417	38.9942	0
3.418	37.9932	0
3.419	37.0022	0
3.42	36.0012	0
3.421	36.0101	0
3.422	39.019	0
3.423	43.0178	0
3.424	47.0267	0
3.425	52.0255	0
3.426	56.0343	0
3.427	62.0331	0
3.428	66.0418	0
3.429	68.0505	0
3.43	68.0492	0
3.431	67.0579	0
3.432	68.0566	0
3.433	65.0652	0
3.434	62.0638	0
3.435	57.0725	0
3.436	52.071	0
3.437	50.0796	0
3.438	46.0782	0
3.439	46.0867	0
3.44	44.0852	0
3.441	43.0938	0
3.442	44.0923	0
3.443	46.0908	0
3.444	51.0992	0
3.445	54.0977	0
3.446	59.1062	0
3.447	63.1046	0
3.448	67.1131	0
3.449	68.1115	0
3.45	68.1099	0
3.451	67.1184	0
3.452	66.1168	0
3.453	63.1252	0
3.454	57.1236	0
3.455	49.122	0
3.456	43.1304	0
3.457	40.1288	0
3.458	37.1272	0
3.459	34.1356	0
3.46	32.134	0
3.461	29.1324	0
3.462	28.1408	0
3.463	30.1392	0
3.464	33.1376	0
3.465	35.136	0
3.466	38.1444	0
3.467	42.1429	0
3.468	43.1413	0
3.469	46.1397	0
3.47	44.1482	0
3.471	42.1466	0
3.472	39.1451	0
3.473	35.1436	0
3.474	29.152	0
3.475	21.1505	0
3.476	14.149	0
3.477	9.14756	0
3.478	5.1461	0
3.479	1.14464	0
3.48	-1.8468	0
3.481	-6.84822	0
3.482	-4.84963	0
3.483	-3.85102	0
3.484	-0.852395	0
3.485	1.14625	0
3.486	5.14491	0
3.487	8.1436	0
3.488	10.1423	0
3.489	11.141	0
3.49	10.1398	0
3.491	8.13855	0
3.492	5.13735	0
3.493	2.13617	0
3.494	-3.86499	0
3.495	-9.86612	0
3.496	-16.8672	0
3.497	-19.8683	0
3.498	-24.8693	0
3.499	-27.8704	0
3.5	-30.8714	0
3.501	-32.8723	0
3.502	-31.8732	0
3.503	-28.8741	0
3.504	-26.875	0
3.505	-22.8758	0
3.506	-18.8766	0
3.507	-13.8874	0
3.508	-11.8881	0
3.509	-10.8888	0
3.51	-10.8895	0
3.511	-11.8901	0
3.512	-12.9007	0
3.513	-16.9012	0
3.514	-21.9017	0
3.515	-27.9022	0
3.516	-32.9026	0
3.517	-34.913	0
3.518	-38.9133	0
3.519	-40.9136	0
3.52	-42.9239	0
3.521	-43.9241	0
3.522	-41.9243	0
3.523	-39.9344	0
3.524	-35.9344	0
3.525	-31.9345	0
3.526	-27.9444	0
3.527	-22.9444	0
3.528	-18.9442	0
3.529	-17.9541	0
3.53	-17.9538	0
3.531	-16.9636	0
3.532	-16.9632	0
3.533	-20.9728	0
3.534	-23.9724	0
3.535	-28.9819	0
3.536	-33.9814	0
3.537	-35.9908	0
3.538	-38.9901	0
3.539	-40.9994	0
3.54	-41.9986	0
3.541	-43.0078	0
3.542	-39.0069	0
3.543	-36.0159	0
3.544	-32.0249	0
3.545	-29.0238	0
3.546	-25.0327	0
3.547	-20.0315	0
3.548	-17.0402	0
3.549	-15.0489	0
3.55	-13.0575	0
3.551	-15.056	0
3.552	-15.0645	0
3.553	-18.0729	0
3.554	-22.0712	0
3.555	-28.0795	0
3.556	-32.0877	0
3.557	-35.0958	0
3.558	-37.1038	0
3.559	-37.1018	0
3.56	-39.1097	0
3.561	-40.1175	0
3.562	-37.1253	0
3.563	-35.133	0
3.564	-32.1406	0
3.565	-27.1481	0
3.566	-23.1556	0
3.567	-16.1629	0
3.568	-14.1602	0
3.569	-12.1675	0
3.57	-12.1746	0
3.571	-12.1817	0
3.572	-11.1886	0
3.573	-14.1955	0
3.574	-17.2123	0
3.575	-23.2191	0
3.576	-28.2257	0
3.577	-30.2323	0
3.578	-32.2387	0
3.579	-34.2451	0
3.58	-35.2514	0
3.581	-36.2576	0
3.582	-34.2737	0
3.583	-30.2798	0
3.584	-26.2857	0
3.585	-23.2916	0
3.586	-18.2973	0
3.587	-12.313	0
3.588	-8.31857	0
3.589	-6.32405	0
3.59	-7.32943	0
3.591	-6.34472	0
3.592	-5.34992	0
3.593	-7.36501	0
3.594	-11.37	0
3.595	-18.3749	0
3.596	-23.3897	0
3.597	-25.3944	0
3.598	-28.409	0
3.599	-28.4135	0
3.6	-29.4179	0
3.601	-30.4322	0
3.602	-28.4364	0
3.603	-26.4505	0
3.604	-21.4645	0
3.605	-17.4684	0
3.606	-12.4822	0
3.607	-6.48583	0
3.608	-5.49939	0
3.609	-2.51284	0
3.61	-3.51618	0
3.611	-2.52942	0
3.612	-2.53254	0
3.613	-5.54555	0
3.614	-8.55845	0
3.615	-14.5712	0
3.616	-19.5739	0
3.617	-21.5865	0
3.618	-24.5989	0
3.619	-26.6113	0
3.62	-28.6235	0
3.621	-27.6256	0
3.622	-24.6375	0
3.623	-22.6494	0
3.624	-17.6611	0
3.625	-13.6728	0
3.626	-9.68427	0
3.627	-4.69565	0
3.628	-1.70691	0
3.629	1.28195	0
3.63	0.270939	0
3.631	1.26005	0
3.632	2.24929	0
3.633	-0.761351	0
3.634	-4.77186	0
3.635	-10.7822	0
3.636	-13.7925	0
3.637	-16.8126	0
3.638	-19.8226	0
3.639	-20.8325	0
3.64	-20.8422	0
3.641	-21.8518	0
3.642	-20.8713	0
3.643	-18.8807	0
3.644	-15.8899	0
3.645	-12.8989	0
3.646	-6.91788	0
3.647	-1.92669	0
3.648	1.06465	0
3.649	4.04612	0
3.65	3.03772	0
3.651	3.01947	0
3.652	5.01136	0
3.653	2.00338	0
3.654	-1.01445	0
3.655	-8.02214	0
3.656	-13.0397	0
3.657	-15.0571	0
3.658	-19.0644	0
3.659	-20.0815	0
3.66	-21.0885	0
3.661	-22.1053	0
3.662	-19.122	0
3.663	-17.1285	0
3.664	-13.1449	0
3.665	-10.1611	0
3.666	-5.1672	0
3.667	-1.18314	0
3.668	2.80108	0
3.669	4.78544	0
3.67	5.77996	0
3.671	5.76463	0
3.672	6.74946	0
3.673	2.73444	0
3.674	-0.280426	0
3.675	-6.29514	0
3.676	-11.3097	0
3.677	-13.3241	0
3.678	-15.3383	0
3.679	-15.3524	0
3.68	-17.3663	0
3.681	-17.3801	0
3.682	-16.3937	0
3.683	-13.4071	0
3.684	-10.4204	0
3.685	-7.43349	0
3.686	-2.44643	0
3.687	3.54079	0
3.688	5.51817	0
3.689	7.50573	0
3.69	8.49344	0
3.691	8.48133	0
3.692	9.45938	0
3.693	7.44761	0
3.694	3.436	0
3.695	-2.58544	0
3.696	-6.5967	0
3.697	-9.6078	0
3.698	-11.6287	0
3.699	-13.6395	0
3.7	-15.66	0
3.701	-15.6704	0
3.702	-13.6907	0
3.703	-11.7007	0
3.704	-7.72058	0
3.705	-4.73027	0
3.706	0.250214	0
3.707	5.23088	0
3.708	9.22172	0
3.709	11.2028	0
3.71	12.184	0
3.711	11.1753	0
3.712	12.1569	0
3.713	10.1387	0
3.714	5.12061	0
3.715	0.112739	0
3.716	-5.90495	0
3.717	-6.92245	0
3.718	-9.93977	0
3.719	-11.9569	0
3.72	-13.9738	0
3.721	-14.9906	0
3.722	-12.0071	0
3.723	-11.0235	0
3.724	-9.0397	0
3.725	-5.05568	0
3.726	0.928524	0
3.727	6.91292	0
3.728	9.89752	0
3.729	12.8823	0
3.73	12.8673	0
3.731	11.8425	0
3.732	12.8279	0
3.733	9.81343	0
3.734	5.79921	0
3.735	-0.224813	0
3.736	-4.23864	0
3.737	-7.25226	0
3.738	-10.2757	0
3.739	-12.2889	0
3.74	-13.3019	0
3.741	-15.3247	0
3.742	-13.3373	0
3.743	-10.3597	0
3.744	-6.37194	0
3.745	-3.39393	0
3.746	0.594289	0
3.747	4.57271	0
3.748	8.55135	0
3.749	10.5402	0
3.75	10.5192	0
3.751	11.4985	0
3.752	10.488	0
3.753	8.46768	0
3.754	3.44758	0
3.755	-2.5723	0
3.756	-6.58197	0
3.757	-7.60143	0
3.758	-11.6207	0
3.759	-12.6397	0
3.76	-13.6585	0
3.761	-13.6771	0
3.762	-11.6954	0
3.763	-8.71359	0
3.764	-4.73151	0
3.765	-0.749219	0
3.766	2.2333	0
3.767	10.216	0
3.768	12.199	0
3.769	14.1822	0
3.77	14.1656	0
3.771	13.1392	0
3.772	15.1231	0
3.773	11.1072	0
3.774	8.09151	0
3.775	2.06605	0
3.776	-1.94917	0
3.777	-2.96417	0
3.778	-5.98893	0
3.779	-7.00346	0
3.78	-9.02776	0
3.781	-9.04183	0
3.782	-7.06567	0
3.783	-5.07927	0
3.784	-2.10263	0
3.785	1.88424	0
3.786	4.86134	0
3.787	11.8487	0
3.788	14.8263	0
3.789	14.8041	0
3.79	14.7921	0
3.791	13.7704	0
3.792	13.749	0
3.793	12.7278	0
3.794	10.7168	0
3.795	5.69605	0
3.796	-1.32444	0
3.797	-3.34468	0
3.798	-5.36469	0
3.799	-5.38444	0
3.8	-7.40395	0
3.801	-8.42321	0
3.802	-8.44223	0
3.803	-6.46099	0
3.804	-1.47951	0
3.805	1.50223	0
3.806	7.48421	0
3.807	11.4664	0
3.808	16.4389	0
3.809	17.4217	0
3.81	18.4047	0
3.811	17.3879	0
3.812	18.3614	0
3.813	14.3452	0
3.814	11.3292	0
3.815	7.30348	0
3.816	2.28801	0
3.817	0.262807	0
3.818	-2.75214	0
3.819	-4.77683	0
3.82	-5.79126	0
3.821	-7.81542	0
3.822	-5.82933	0
3.823	-3.85297	0
3.824	-0.866345	0
3.825	3.11054	0
3.826	7.0877	0
3.827	12.0651	0
3.828	15.0528	0
3.829	16.0308	0
3.83	18.009	0
3.831	16.9875	0
3.832	17.9662	0
3.833	14.9453	0
3.834	12.9346	0
3.835	7.91413	0
3.836	1.89398	0
3.837	-0.125903	0
3.838	-2.14551	0
3.839	-4.17484	0
3.84	-6.1939	0
3.841	-6.21268	0
3.842	-4.23118	0
3.843	-3.24941	0
3.844	0.732642	0
3.845	4.70497	0
3.846	9.68758	0
3.847	14.6705	0
3.848	17.6536	0
3.849	18.6271	0
3.85	18.6108	0
3.851	20.5849	0
3.852	20.5692	0
3.853	16.5438	0
3.854	13.5286	0
3.855	8.50379	0
3.856	4.48924	0
3.857	1.46498	0
3.858	-1.549	0
3.859	-3.57269	0
3.86	-5.59608	0
3.861	-6.60919	0
3.862	-5.632	0
3.863	-3.65453	0
3.864	-0.676755	0
3.865	3.30131	0
3.866	6.28967	0
3.867	11.2683	0
3.868	13.2473	0
3.869	14.2265	0
3.87	14.2061	0
3.871	15.1859	0
3.872	17.166	0
3.873	13.1465	0
3.874	11.1272	0
3.875	7.09825	0
3.876	4.07959	0
3.877	1.06123	0
3.878	-0.956821	0
3.879	-4.97457	0
3.88	-6.00202	0
3.881	-6.01916	0
3.882	-5.036	0
3.883	-4.06252	0
3.884	-2.07875	0
3.885	1.89534	0
3.886	6.87974	0
3.887	12.8544	0
3.888	14.8395	0
3.889	15.8148	0
3.89	16.8004	0
3.891	17.7764	0
3.892	18.7526	0
3.893	14.7392	0
3.894	10.7161	0
3.895	6.6933	0
3.896	2.67082	0
3.897	-0.341339	0
3.898	-4.36318	0
3.899	-7.38471	0
3.9	-9.40592	0
3.901	-11.4268	0
3.902	-8.44737	0
3.903	-7.46762	0
3.904	-4.48754	0
3.905	-0.507144	0
3.906	5.47358	0
3.907	9.45462	0
3.908	13.436	0
3.909	15.4177	0
3.91	16.3897	0
3.911	16.3721	0
3.912	15.3547	0
3.913	14.3277	0
3.914	11.3111	0
3.915	7.29473	0
3.916	2.26872	0
3.917	0.253047	0
3.918	-4.7723	0
3.919	-6.78731	0
3.92	-8.81199	0
3.921	-7.82633	0
3.922	-5.85034	0
3.923	-4.86401	0
3.924	-2.88735	0
3.925	2.08965	0
3.926	6.07698	0
3.927	11.0547	0
3.928	15.0327	0
3.929	17.011	0
3.93	16.9897	0
3.931	18.9688	0
3.932	19.9581	0
3.933	19.9379	0
3.934	15.9179	0
3.935	10.8983	0
3.936	5.87908	0
3.937	1.85018	0
3.938	0.831627	0
3.939	-2.18658	0
3.94	-4.20444	0
3.941	-5.22195	0
3.942	-4.23911	0
3.943	-3.26593	0
3.944	-0.282387	0
3.945	3.7015	0
3.946	9.67574	0
3.947	13.6603	0
3.948	16.6453	0
3.949	18.6206	0
3.95	18.6062	0
3.951	19.5823	0
3.952	19.5586	0
3.953	18.5454	0
3.954	15.5224	0
3.955	9.50989	0
3.956	5.48769	0
3.957	3.46586	0
3.958	-0.55562	0
3.959	-2.56673	0
3.96	-3.58749	0
3.961	-4.60788	0
3.962	-3.6279	0
3.963	-2.64756	0
3.964	-1.66686	0
3.965	3.31421	0
3.966	9.29565	0
3.967	13.2775	0
3.968	17.2596	0
3.969	19.2422	0
3.97	19.2251	0
3.971	20.2084	0
3.972	20.182	0
3.973	19.166	0
3.974	15.1504	0
3.975	10.1252	0
3.976	6.11034	0
3.977	3.09586	0
3.978	0.0717512	0
3.979	-2.94198	0
3.98	-3.96533	0
3.981	-4.97831	0
3.982	-4.00091	0
3.983	-2.01313	0
3.984	-0.0349713	0
3.985	3.94357	0
3.986	8.93249	0
3.987	12.9118	0
3.988	16.8915	0
3.989	17.8715	0
3.99	19.862	0
3.991	19.8428	0
3.992	21.8241	0
3.993	19.8057	0
3.994	16.7877	0
3.995	11.77	0
3.996	8.75282	0
3.997	4.73598	0
3.998	1.71953	0
3.999	-1.29653	0
4	-3.3122	0
4.001	-3.33747	0
4.002	-3.35236	0
4.003	-2.36684	0
4.004	-1.38094	0
4.005	2.59536	0
4.006	7.58205	0
4.007	10.5691	0
4.008	14.5466	0
4.009	15.5345	0
4.01	16.5128	0
4.011	17.5015	0
4.012	16.4806	0
4.013	16.4601	0
4.014	12.4499	0
4.015	8.43023	0
4.016	4.41092	0
4.017	0.40201	0
4.018	-1.61649	0
4.019	-3.63459	0
4.02	-4.65228	0
4.021	-5.66957	0
4.022	-3.68644	0
4.023	-2.69291	0
4.024	0.291025	0
4.025	4.27537	0
4.026	11.2601	0
4.027	17.2353	0
4.028	21.2209	0
4.029	22.2069	0
4.03	24.1933	0
4.031	26.1801	0
4.032	26.1673	0
4.033	25.145	0
4.034	21.133	0
4.035	17.1215	0
4.036	13.1004	0
4.037	10.0897	0
4.038	9.06947	0
4.039	6.05963	0
4.04	5.0402	0
4.041	6.0312	0
4.042	6.01261	0
4.043	7.00445	0
4.044	8.98672	0
4.045	13.9694	0
4.046	17.9525	0
4.047	20.946	0
4.048	25.93	0
4.049	26.9144	0
4.05	27.8992	0
4.051	29.8845	0
4.052	29.8701	0
4.053	28.8562	0
4.054	23.8428	0
4.055	19.8297	0
4.056	13.8171	0
4.057	11.805	0
4.058	7.79322	0
4.059	4.78191	0
4.06	2.77104	0
4.061	0.750607	0
4.062	0.740608	0
4.063	0.731046	0
4.064	2.71192	0
4.065	5.70324	0
4.066	10.695	0
4.067	14.6772	0
4.068	16.6698	0
4.069	18.6529	0
4.07	19.6364	0
4.071	21.6304	0
4.072	21.6148	0
4.073	20.6096	0
4.074	15.5949	0
4.075	11.5806	0
4.076	7.56682	0
4.077	3.56345	0
4.078	1.55053	0
4.079	-2.46195	0
4.08	-3.47397	0
4.081	-3.48555	0
4.082	-3.49667	0
4.083	0.492654	0
4.084	2.48243	0
4.085	5.47266	0
4.086	9.46335	0
4.087	13.4445	0
4.088	16.4361	0
4.089	16.4281	0
4.09	18.4206	0
4.091	19.4036	0
4.092	20.397	0
4.093	18.3909	0
4.094	16.3752	0
4.095	11.37	0
4.096	8.35529	0
4.097	4.35101	0
4.098	2.3372	0
4.099	-0.666157	0
4.1	-1.67905	0
4.101	-2.69147	0
4.102	-1.69344	0
4.103	-0.704932	0
4.104	2.28404	0
4.105	5.28348	0
4.106	10.2734	0
4.107	14.2638	0
4.108	17.2546	0
4.109	19.2459	0
4.11	19.2377	0
4.111	20.23	0
4.112	21.2227	0
4.113	19.2159	0
4.114	17.2096	0
4.115	13.2037	0
4.116	10.1883	0
4.117	6.18344	0
4.118	3.17901	0
4.119	1.17507	0
4.12	-0.838398	0
4.121	-0.841386	0
4.122	-3.84389	0
4.123	-0.855923	0
4.124	1.14253	0
4.125	3.13146	0
4.126	8.13088	0
4.127	13.1208	0
4.128	16.1112	0
4.129	18.112	0
4.13	18.1034	0
4.131	19.0952	0
4.132	21.0975	0
4.133	20.0904	0
4.134	17.0837	0
4.135	12.0775	0
4.136	9.07174	0
4.137	4.06651	0
4.138	3.06177	0
4.139	0.0575231	0
4.14	0.0537694	0
4.141	-0.949491	0
4.142	-0.952258	0
4.143	0.0454706	0
4.144	2.04369	0
4.145	5.04241	0
4.146	11.0316	0
4.147	14.0313	0
4.148	18.0316	0
4.149	20.0223	0
4.15	21.0235	0
4.151	22.0252	0
4.152	23.0174	0
4.153	22.0201	0
4.154	19.0133	0
4.155	14.0171	0
4.156	11.0113	0
4.157	7.00602	0
4.158	4.01125	0
4.159	2.00699	0
4.16	0.00324315	0
4.161	0	0
4.162	-0.992735	0
4.163	-0.994962	0
4.164	1.00332	0
4.165	4.0021	0
4.166	7.0014	0
4.167	11.0012	0
4.168	12.0015	0
4.169	12.0023	0
4.17	10.0036	0
4.171	8.00541	0
4.172	3.99772	0
4.173	-2.99947	0
4.174	-11.9962	0
4.175	-19.9924	0
4.176	-26.998	0
4.177	-32.9932	0
4.178	-36.9879	0
4.179	-38.9921	0
4.18	-39.9859	0
4.181	-39.9891	0
4.182	-36.9818	0
4.183	-32.984	0
4.184	-27.9757	0
4.185	-20.977	0
4.186	-10.9777	0
4.187	-3.968	0
4.188	4.03222	0
4.189	8.03294	0
4.19	13.0341	0
4.191	20.0358	0
4.192	30.048	0
4.193	43.0507	0
4.194	59.0538	0
4.195	82.0575	0
4.196	110.062	0
4.197	140.066	0
4.198	171.071	0
4.199	201.067	0
4.2	229.073	0
4.201	256.079	0
4.202	278.086	0
4.203	301.094	0
4.204	321.092	0
4.205	338.1	0
4.206	354.109	0
4.207	371.109	0
4.208	385.118	0
4.209	398.119	0
4.21	409.13	0
4.211	418.131	1
4.212	424.143	0
4.213	424.145	0
4.214	419.148	0
4.215	406.161	0
4.216	389.164	0
4.217	367.168	0
4.218	339.173	0
4.219	305.178	0
4.22	267.194	0
4.221	226.199	0
4.222	186.206	0
4.223	147.213	0
4.224	113.22	0
4.225	85.228	0
4.226	66.2363	0
4.227	54.235	0
4.228	48.2442	0
4.229	42.2539	0
4.23	37.264	0
4.231	34.2746	0
4.232	31.2756	0
4.233	27.2871	0
4.234	22.299	0
4.235	16.3014	0
4.236	9.31429	0
4.237	4.3176	0
4.238	-2.66864	0
4.239	-6.66443	0
4.24	-11.6498	0
4.241	-15.6446	0
4.242	-16.6391	0
4.243	-17.6231	0
4.244	-18.6166	0
4.245	-15.6097	0
4.246	-12.6023	0
4.247	-9.58453	0
4.248	-7.57629	0
4.249	-7.56759	0
4.25	-8.55846	0
4.251	-8.54888	0
4.252	-8.53885	0
4.253	-11.5284	0
4.254	-14.5175	0
4.255	-18.5061	0
4.256	-22.4944	0
4.257	-26.4921	0
4.258	-30.4795	0
4.259	-33.4664	0
4.26	-36.4528	0
4.261	-38.4489	0
4.262	-40.4345	0
4.263	-39.4196	0
4.264	-38.4143	0
4.265	-35.3986	0
4.266	-30.3925	0
4.267	-26.3759	0
4.268	-22.3689	0
4.269	-21.3515	0
4.27	-18.3436	0
4.271	-17.3353	0
4.272	-16.3166	0
4.273	-17.3075	0
4.274	-20.2979	0
4.275	-24.2879	0
4.276	-29.2775	0
4.277	-31.2567	0
4.278	-33.2454	0
4.279	-36.2337	0
4.28	-39.2216	0
4.281	-38.209	0
4.282	-38.1961	0
4.283	-39.1827	0
4.284	-37.1789	0
4.285	-34.1647	0
4.286	-28.1501	0
4.287	-23.135	0
4.288	-20.1196	0
4.289	-19.1137	0
4.29	-18.0974	0
4.291	-17.0807	0
4.292	-14.0736	0
4.293	-14.0561	0
4.294	-17.0481	0
4.295	-20.0298	0
4.296	-23.021	0
4.297	-26.0018	0
4.298	-29.9922	0
4.299	-31.9723	0
4.3	-33.9619	0
4.301	-33.9511	0
4.302	-33.9399	0
4.303	-32.9182	0
4.304	-30.9062	0
4.305	-26.8938	0
4.306	-20.881	0
4.307	-15.8678	0
4.308	-11.8541	0
4.309	-10.8401	0
4.31	-11.8257	0
4.311	-8.81084	0
4.312	-6.79562	0
4.313	-7.77999	0
4.314	-10.764	0
4.315	-14.7476	0
4.316	-17.7407	0
4.317	-21.7235	0
4.318	-23.7059	0
4.319	-24.6879	0
4.32	-26.6796	0
4.321	-28.6608	0
4.322	-28.6516	0
4.323	-26.6321	0
4.324	-23.6221	0
4.325	-19.6018	0
4.326	-13.591	0
4.327	-9.56992	0
4.328	-5.55842	0
4.329	-3.54654	0
4.33	-2.52427	0
4.331	-1.51161	0
4.332	0.501429	0
4.333	-0.475149	0
4.334	-3.46134	0
4.335	-6.44716	0
4.336	-9.43259	0
4.337	-12.4176	0
4.338	-15.4023	0
4.339	-17.3866	0
4.34	-19.3705	0
4.341	-19.3541	0
4.342	-19.3372	0
4.343	-18.32	0
4.344	-16.3024	0
4.345	-12.2945	0
4.346	-7.27614	0
4.347	-2.25743	0
4.348	2.76165	0
4.349	4.7711	0
4.35	7.79092	0
4.351	9.80111	0
4.352	9.82167	0
4.353	10.8426	0
4.354	7.8539	0
4.355	3.86556	0
4.356	0.887588	0
4.357	-4.10002	0
4.358	-7.07726	0
4.359	-9.06414	0
4.36	-12.0506	0
4.361	-10.0268	0
4.362	-10.0126	0
4.363	-7.99802	0
4.364	-5.98309	0
4.365	-1.9678	0
4.366	4.04785	0
4.367	8.06386	0
4.368	13.0802	0
4.369	14.0969	0
4.37	16.114	0
4.371	18.1315	0
4.372	20.1492	0
4.373	19.1674	0
4.374	17.1859	0
4.375	14.2047	0
4.376	12.2239	0
4.377	8.23347	0
4.378	6.25337	0
4.379	3.27362	0
4.38	2.28421	0
4.381	2.30516	0
4.382	2.31645	0
4.383	3.33808	0
4.384	4.36007	0
4.385	9.37239	0
4.386	14.3851	0
4.387	20.4081	0
4.388	23.4214	0
4.389	26.4451	0
4.39	26.4592	0
4.391	28.4736	0
4.392	30.4883	0
4.393	28.5133	0
4.394	25.5287	0
4.395	21.5445	0
4.396	19.5605	0
4.397	16.577	0
4.398	14.5937	0
4.399	12.6108	0
4.4	11.6282	0
4.401	12.6459	0
4.402	12.664	0
4.403	13.6824	0
4.404	15.7012	0
4.405	20.7202	0
4.406	26.7396	0
4.407	30.7494	0
4.408	35.7694	0
4.409	38.7898	0
4.41	39.8005	0
4.411	42.8215	0
4.412	43.8429	0
4.413	43.8546	0
4.414	40.8766	0
4.415	37.8889	0
4.416	36.9116	0
4.417	34.9246	0
4.418	32.9479	0
4.419	29.9615	0
4.42	29.9754	0
4.421	30.9997	0
4.422	30.0142	0
4.423	33.0291	0
4.424	35.0443	0
4.425	40.0698	0
4.426	46.0857	0
4.427	51.1018	0
4.428	55.1183	0
4.429	57.1351	0
4.43	60.1521	0
4.431	63.1695	0
4.432	63.1872	0
4.433	62.2053	0
4.434	59.2236	0
4.435	56.2422	0
4.436	54.2612	0
4.437	51.2804	0
4.438	49.29	0
4.439	46.3098	0
4.44	44.33	0
4.441	44.3505	0
4.442	45.3612	0
4.443	46.3823	0
4.444	48.3937	0
4.445	52.4153	0
4.446	57.4373	0
4.447	62.4496	0
4.448	67.4722	0
4.449	69.485	0
4.45	70.4982	0
4.451	71.5217	0
4.452	72.5354	0
4.453	73.5495	0
4.454	69.5738	0
4.455	66.5885	0
4.456	63.6034	0
4.457	59.6287	0
4.458	57.6442	0
4.459	54.66	0
4.46	53.6761	0
4.461	53.6925	0
4.462	53.7091	0
4.463	54.7261	0
4.464	54.7434	0
4.465	57.7609	0
4.466	62.7787	0
4.467	65.7968	0
4.468	67.8152	0
4.469	68.8339	0
4.47	70.8429	0
4.471	70.8621	0
4.472	69.8816	0
4.473	67.9014	0
4.474	62.9115	0
4.475	58.9319	0
4.476	53.9525	0
4.477	48.9634	0
4.478	43.9846	0
4.479	39.9961	0
4.48	37.0178	0
4.481	34.0298	0
4.482	33.0521	0
4.483	31.0647	0
4.484	31.0875	0
4.485	33.1006	0
4.486	37.114	0
4.487	38.1376	0
4.488	39.1516	0
4.489	39.1657	0
4.49	38.1902	0
4.491	37.2049	0
4.492	36.2199	0
4.493	33.2351	0
4.494	25.2507	0
4.495	21.2664	0
4.496	15.2825	0
4.497	11.2988	0
4.498	7.31537	0
4.499	3.3322	0
4.5	-0.650712	0
4.501	-3.63336	0
4.502	-7.61575	0
4.503	-9.59789	0
4.504	-7.57976	0
4.505	-7.57138	0
4.506	-5.55274	0
4.507	-1.53385	0
4.508	-0.514699	0
4.509	-1.5053	0
4.51	-3.48564	0
4.511	-2.46574	0
4.512	-4.45558	0
4.513	-5.43517	0
4.514	-11.4245	0
4.515	-16.4036	0
4.516	-21.3924	0
4.517	-24.371	0
4.518	-29.3594	0
4.519	-33.3375	0
4.52	-36.3253	0
4.521	-39.3129	0
4.522	-41.2903	0
4.523	-41.2774	0
4.524	-41.2643	0
4.525	-37.2509	0
4.526	-33.2273	0
4.527	-29.2135	0
4.528	-27.1994	0
4.529	-27.1851	0
4.53	-28.1705	0
4.531	-26.1557	0
4.532	-28.1407	0
4.533	-29.1254	0
4.534	-33.1099	0
4.535	-38.0942	0
4.536	-42.0782	0
4.537	-45.062	0
4.538	-47.0455	0
4.539	-51.0288	0
4.54	-54.0219	0
4.541	-55.0048	0
4.542	-56.9874	0
4.543	-55.9698	0
4.544	-54.962	0
4.545	-50.944	0
4.546	-45.9257	0
4.547	-40.9172	0
4.548	-38.8984	0
4.549	-35.8795	0
4.55	-34.8703	0
4.551	-33.8509	0
4.552	-31.8413	0
4.553	-33.8214	0
4.554	-36.8114	0
4.555	-40.8011	0
4.556	-44.7806	0
4.557	-47.7699	0
4.558	-49.7489	0
4.559	-51.7378	0
4.56	-53.7264	0
4.561	-54.7148	0
4.562	-55.693	0
4.563	-54.681	0
4.564	-52.6687	0
4.565	-47.6563	0
4.566	-42.6436	0
4.567	-38.6307	0
4.568	-35.6177	0
4.569	-32.5944	0
4.57	-33.5809	0
4.571	-30.5672	0
4.572	-29.5533	0
4.573	-31.5491	0
4.574	-34.5348	0
4.575	-38.5203	0
4.576	-42.5055	0
4.577	-44.4906	0
4.578	-47.4754	0
4.579	-50.4601	0
4.58	-50.4545	0
4.581	-49.4388	0
4.582	-49.4228	0
4.583	-47.4067	0
4.584	-46.4003	0
4.585	-43.3838	0
4.586	-37.377	0
4.587	-33.3601	0
4.588	-30.343	0
4.589	-29.3356	0
4.59	-28.3181	0
4.591	-26.3104	0
4.592	-25.2925	0
4.593	-25.2844	0
4.594	-29.2761	0
4.595	-31.2576	0
4.596	-34.2489	0
4.597	-39.23	0
4.598	-41.221	0
4.599	-44.2117	0
4.6	-44.2023	0
4.601	-46.1827	0
4.602	-45.1729	0
4.603	-44.1629	0
4.604	-42.1527	0
4.605	-40.1423	0
4.606	-32.1218	0
4.607	-28.1111	0
4.608	-24.1002	0
4.609	-21.0891	0
4.61	-20.0778	0
4.611	-17.0664	0
4.612	-19.0548	0
4.613	-20.043	0
4.614	-24.031	0
4.615	-27.0189	0
4.616	-32.0065	0
4.617	-34.004	0
4.618	-34.9914	0
4.619	-36.9785	0
4.62	-36.9655	0
4.621	-37.9523	0
4.622	-37.9489	0
4.623	-37.9354	0
4.624	-33.9217	0
4.625	-30.9178	0
4.626	-25.9038	0
4.627	-20.8896	0
4.628	-17.8852	0
4.629	-14.8707	0
4.63	-14.856	0
4.631	-10.8511	0
4.632	-10.8361	0
4.633	-11.8309	0
4.634	-15.8155	0
4.635	-19.81	0
4.636	-21.8043	0
4.637	-25.7885	0
4.638	-28.7825	0
4.639	-29.7663	0
4.64	-31.76	0
4.641	-31.7535	0
4.642	-32.7369	0
4.643	-32.7301	0
4.644	-29.7232	0
4.645	-25.7161	0
4.646	-19.7089	0
4.647	-16.6915	0
4.648	-12.6839	0
4.649	-10.6762	0
4.65	-9.66836	0
4.651	-7.66036	0
4.652	-7.65221	0
4.653	-9.64391	0
4.654	-13.6355	0
4.655	-18.6269	0
4.656	-20.6181	0
4.657	-23.6093	0
4.658	-27.6002	0
4.659	-29.5911	0
4.66	-31.5817	0
4.661	-30.5723	0
4.662	-32.5627	0
4.663	-31.5529	0
4.664	-29.5531	0
4.665	-25.543	0
4.666	-20.5329	0
4.667	-16.5226	0
4.668	-11.5122	0
4.669	-9.51159	0
4.67	-7.50088	0
4.671	-4.49004	0
4.672	-4.48907	0
4.673	-7.47796	0
4.674	-10.4767	0
4.675	-13.4653	0
4.676	-16.4538	0
4.677	-20.4522	0
4.678	-23.4404	0
4.679	-27.4385	0
4.68	-27.4265	0
4.681	-28.4244	0
4.682	-27.4121	0
4.683	-25.4097	0
4.684	-25.4072	0
4.685	-21.3945	0
4.686	-14.3917	0
4.687	-10.3788	0
4.688	-7.37581	0
4.689	-5.37267	0
4.69	-4.3694	0
4.691	-2.35602	0
4.692	-2.35251	0
4.693	-4.34889	0
4.694	-7.34515	0
4.695	-11.3313	0
4.696	-15.3273	0
4.697	-17.3232	0
4.698	-20.319	0
4.699	-22.3147	0
4.7	-23.3103	0
4.701	-25.3057	0
4.702	-24.301	0
4.703	-24.2963	0
4.704	-23.2914	0
4.705	-17.2864	0
4.706	-13.2813	0
4.707	-10.2761	0
4.708	-8.27076	0
4.709	-7.26533	0
4.71	-5.2598	0
4.711	-2.25416	0
4.712	-2.24842	0
4.713	-3.24257	0
4.714	-6.23662	0
4.715	-9.24056	0
4.716	-11.2344	0
4.717	-15.2282	0
4.718	-18.2218	0
4.719	-20.2153	0
4.72	-20.2188	0
4.721	-22.2121	0
4.722	-22.2054	0
4.723	-21.2085	0
4.724	-19.2016	0
4.725	-14.1945	0
4.726	-9.1974	0
4.727	-6.19017	0
4.728	-4.19285	0
4.729	-2.18544	0
4.73	-1.17793	0
4.731	0.819668	0
4.732	0.827356	0
4.733	-0.174867	0
4.734	-4.167	0
4.735	-7.16905	0
4.736	-10.171	0
4.737	-14.1629	0
4.738	-17.1647	0
4.739	-20.1564	0
4.74	-21.158	0
4.741	-21.1595	0
4.742	-21.151	0
4.743	-20.1523	0
4.744	-18.1536	0
4.745	-13.1448	0
4.746	-9.14595	0
4.747	-4.147	0
4.748	-1.14797	0
4.749	-2.13886	0
4.75	1.86033	0
4.751	2.85959	0
4.752	3.85893	0
4.753	1.85834	0
4.754	-1.13217	0
4.755	-4.13261	0
4.756	-7.13298	0
4.757	-10.1333	0
4.758	-13.1335	0
4.759	-15.1336	0
4.76	-17.1337	0
4.761	-17.1337	0
4.762	-17.1337	0
4.763	-16.1336	0
4.764	-14.1334	0
4.765	-10.1331	0
4.766	-6.13281	0
4.767	-1.13242	0
4.768	0.868023	0
4.769	1.86853	0
4.77	2.86911	0
4.771	5.86974	0
4.772	5.87044	0
4.773	3.86119	0
4.774	0.862009	0
4.775	-2.13712	0
4.776	-6.13619	0
4.777	-11.1352	0
4.778	-15.1342	0
4.779	-18.143	0
4.78	-18.1419	0
4.781	-19.1407	0
4.782	-18.1394	0
4.783	-17.1481	0
4.784	-16.1467	0
4.785	-11.1453	0
4.786	-5.15384	0
4.787	-1.15232	0
4.788	2.84925	0
4.789	3.84087	0
4.79	5.84254	0
4.791	7.83425	0
4.792	6.83601	0
4.793	5.83781	0
4.794	1.82966	0
4.795	-1.16844	0
4.796	-4.17651	0
4.797	-7.17453	0
4.798	-11.1825	0
4.799	-14.1804	0
4.8	-16.1883	0
4.801	-17.1862	0
4.802	-16.194	0
4.803	-16.1918	0
4.804	-13.1995	0
4.805	-8.20725	0
4.806	-3.20492	0
4.807	1.78745	0
4.808	4.78985	0
4.809	5.78228	0
4.81	6.77475	0
4.811	8.77725	0
4.812	8.76978	0
4.813	6.76234	0
4.814	2.76493	0
4.815	-0.242454	0
4.816	-4.24981	0
4.817	-8.25713	0
4.818	-11.2544	0
4.819	-14.2617	0
4.82	-14.2689	0
4.821	-14.2762	0
4.822	-15.2734	0
4.823	-14.2805	0
4.824	-11.2877	0
4.825	-6.2948	0
4.826	-1.30191	0
4.827	4.69101	0
4.828	8.69394	0
4.829	9.6869	0
4.83	11.6799	0
4.831	13.6729	0
4.832	13.6659	0
4.833	10.6589	0
4.834	6.65193	0
4.835	2.64498	0
4.836	-2.36195	0
4.837	-5.36887	0
4.838	-8.37578	0
4.839	-11.3827	0
4.84	-12.3896	0
4.841	-12.3964	0
4.842	-11.4033	0
4.843	-10.4102	0
4.844	-8.41701	0
4.845	-4.42385	0
4.846	0.569318	0
4.847	4.56249	0
4.848	7.55567	0
4.849	9.54885	0
4.85	10.542	0
4.851	11.5352	0
4.852	11.5284	0
4.853	10.5216	0
4.854	7.50479	0
4.855	2.49799	0
4.856	-0.508823	0
4.857	-3.51563	0
4.858	-7.52245	0
4.859	-10.5293	0
4.86	-10.5461	0
4.861	-10.5529	0
4.862	-11.5597	0
4.863	-9.56657	0
4.864	-8.57341	0
4.865	-4.59026	0
4.866	-0.597112	0
4.867	5.39602	0
4.868	8.38915	0
4.869	10.3723	0
4.87	11.3654	0
4.871	12.3585	0
4.872	12.3415	0
4.873	10.3346	0
4.874	6.32766	0
4.875	2.3107	0
4.876	-1.69628	0
4.877	-2.70328	0
4.878	-6.72029	0
4.879	-8.72731	0
4.88	-10.7344	0
4.881	-9.75143	0
4.882	-9.75851	0
4.883	-8.76562	0
4.884	-6.78274	0
4.885	-2.78989	0
4.886	2.19293	0
4.887	8.18574	0
4.888	11.1785	0
4.889	12.1613	0
4.89	14.154	0
4.891	16.1367	0
4.892	15.1294	0
4.893	13.112	0
4.894	11.1047	0
4.895	6.08724	0
4.896	3.0798	0
4.897	0.0623306	0
4.898	-2.94517	0
4.899	-5.96271	0
4.9	-5.97027	0
4.901	-8.98788	0
4.902	-8.99551	0
4.903	-8.01318	0
4.904	-5.02089	0
4.905	-0.0386327	0
4.906	4.95359	0
4.907	9.93577	0
4.908	11.9179	0
4.909	13.91	0
4.91	14.8921	0
4.911	16.8841	0
4.912	16.8661	0
4.913	14.858	0
4.914	11.8399	0
4.915	7.82175	0
4.916	4.81356	0
4.917	-0.204686	0
4.918	-1.21297	0
4.919	-4.23131	0
4.92	-5.24969	0
4.921	-4.25812	0
4.922	-5.2766	0
4.923	-4.29513	0
4.924	-2.30371	0
4.925	1.67766	0
4.926	7.65897	0
4.927	10.6502	0
4.928	12.6314	0
4.929	13.6126	0
4.93	15.6037	0
4.931	17.5847	0
4.932	16.5657	0
4.933	13.5567	0
4.934	12.5375	0
4.935	8.51836	0
4.936	5.49911	0
4.937	1.48981	0
4.938	-1.52956	0
4.939	-4.54899	0
4.94	-4.55848	0
4.941	-4.57803	0
4.942	-5.59765	0
4.943	-5.61733	0
4.944	-3.62708	0
4.945	0.353109	0
4.946	6.33323	0
4.947	8.31328	0
4.948	11.3033	0
4.949	13.2832	0
4.95	13.263	0
4.951	16.2428	0
4.952	15.2325	0
4.953	14.2121	0
4.954	10.1917	0
4.955	7.17119	0
4.956	2.1506	0
4.957	-0.860065	0
4.958	-3.8808	0
4.959	-4.90162	0
4.96	-5.92251	0
4.961	-6.94348	0
4.962	-7.95453	0
4.963	-5.97565	0
4.964	-3.99686	0
4.965	0.98185	0
4.966	5.96048	0
4.967	10.949	0
4.968	12.9275	0
4.969	15.9059	0
4.97	17.8842	0
4.971	18.8624	0
4.972	17.8505	0
4.973	16.8286	0
4.974	12.8065	0
4.975	9.78437	0
4.976	5.76215	0
4.977	0.739832	0
4.978	-3.27257	0
4.979	-5.29507	0
4.98	-8.31765	0
4.981	-7.34033	0
4.982	-8.36311	0
4.983	-6.38597	0
4.984	-5.39893	0
4.985	-0.421989	0
4.986	4.55486	0
4.987	7.53161	0
4.988	11.5083	0
4.989	12.4848	0
4.99	13.4613	0
4.991	16.4476	0
4.992	16.4239	0
4.993	14.4	0
4.994	11.3761	0
4.995	7.35204	0
4.996	3.32789	0
4.997	0.313628	0
4.998	-2.71073	0
4.999	-4.7352	0
5	-3.75978	0
5.001	-3.78446	0
5.002	-3.80925	0
5.003	-2.83415	0
5.004	0.150842	0
5.005	5.12572	0
5.006	12.1005	0
5.007	15.0752	0
5.008	19.0497	0
5.009	22.0241	0
5.01	25.0085	0
5.011	24.9827	0
5.012	25.9568	0
5.013	24.9307	0
5.014	20.9046	0
5.015	17.8783	0
5.016	14.8519	0
5.017	11.8355	0
5.018	9.80884	0
5.019	7.7821	0
5.02	6.75524	0
5.021	7.72826	0
5.022	7.70116	0
5.023	9.68394	0
5.024	10.6566	0
5.025	14.6291	0
5.026	19.6015	0
5.027	23.5738	0
5.028	25.5459	0
5.029	26.528	0
5.03	29.4999	0
5.031	30.4716	0
5.032	30.4432	0
5.033	27.4147	0
5.034	23.3961	0
5.035	19.3674	0
5.036	14.3385	0
5.037	11.3094	0
5.038	8.28027	0
5.039	5.26098	0
5.04	5.23154	0
5.041	3.20198	0
5.042	4.17227	0
5.043	4.14243	0
5.044	7.12244	0
5.045	12.0923	0
5.046	17.0621	0
5.047	19.0317	0
5.048	22.0011	0
5.049	21.9804	0
5.05	23.9496	0
5.051	23.9186	0
5.052	22.8875	0
5.053	19.8662	0
5.054	14.8348	0
5.055	12.8033	0
5.056	9.77156	0
5.057	5.74971	0
5.058	2.71771	0
5.059	0.685556	0
5.06	-1.34675	0
5.061	-2.3692	0
5.062	-1.4018	0
5.063	-0.43456	0
5.064	2.54253	0
5.065	7.50946	0
5.066	12.4762	0
5.067	15.4429	0
5.068	17.4193	0
5.069	19.3856	0
5.07	20.3518	0
5.071	21.3278	0
5.072	21.2936	0
5.073	18.2593	0
5.074	14.2348	0
5.075	12.2002	0
5.076	7.16537	0
5.077	3.1404	0
5.078	-0.894733	0
5.079	-1.93003	0
5.08	-3.9555	0
5.081	-3.99113	0
5.082	-4.02692	0
5.083	-3.05289	0
5.084	-1.08902	0
5.085	3.88468	0
5.086	9.84821	0
5.087	14.8116	0
5.088	16.7848	0
5.089	18.7478	0
5.09	19.7206	0
5.091	19.6833	0
5.092	18.6558	0
5.093	16.6181	0
5.094	12.5803	0
5.095	9.55223	0
5.096	6.51403	0
5.097	3.48564	0
5.098	1.44708	0
5.099	-2.58166	0
5.1	-2.62058	0
5.101	-3.64968	0
5.102	-3.68896	0
5.103	-2.71843	0
5.104	0.241928	0
5.105	6.2121	0
5.106	10.1721	0
5.107	14.1419	0
5.108	16.1015	0
5.109	18.0709	0
5.11	20.0302	0
5.111	21.9992	0
5.112	20.9581	0
5.113	18.9268	0
5.114	13.8953	0
5.115	10.8535	0
5.116	8.82165	0
5.117	3.77956	0
5.118	1.74728	0
5.119	0.714807	0
5.12	-1.32786	0
5.121	-0.360727	0
5.122	-1.39379	0
5.123	-0.437045	0
5.124	2.5295	0
5.125	8.49585	0
5.126	11.452	0
5.127	14.4179	0
5.128	15.3837	0
5.129	17.3392	0
5.13	20.3046	0
5.131	19.2697	0
5.132	20.2247	0
5.133	18.1894	0
5.134	14.1539	0
5.135	11.1183	0
5.136	7.07238	0
5.137	4.03629	0
5.138	0	0
5.139	-1.0365	0
5.14	-1.07321	0
5.141	-5.12014	0
5.142	-4.15726	0
5.143	-4.1946	0
5.144	-4.23215	0
5.145	-1.2699	0
5.146	0.692136	0
5.147	1.64396	0
5.148	-1.39442	0
5.149	-5.43301	0
5.15	-8.4718	0
5.151	-12.5108	0
5.152	-18.55	0
5.153	-23.5895	0
5.154	-28.6291	0
5.155	-33.6689	0
5.156	-37.709	0
5.157	-39.7492	0
5.158	-39.7897	0
5.159	-39.8304	0
5.16	-36.8713	0
5.161	-32.9124	0
5.162	-29.9537	0
5.163	-26.9952	0
5.164	-21.0369	0
5.165	-14.0789	0
5.166	-7.121	0
5.167	3.83665	0
5.168	15.7941	0
5.169	33.7513	0
5.17	59.7083	0
5.171	86.6651	0
5.172	119.622	0
5.173	150.588	0
5.174	179.544	0
5.175	207.5	0
5.176	228.456	0
5.177	248.412	0
5.178	266.367	0
5.179	283.332	0
5.18	298.287	0
5.181	312.242	0
5.182	324.196	0
5.183	338.16	0
5.184	352.115	0
5.185	371.068	0
5.186	389.022	0
5.187	403.986	0
5.188	414.939	1
5.189	422.892	0
5.19	426.855	0
5.191	423.807	0
5.192	414.76	0
5.193	395.722	0
5.194	367.674	0
5.195	336.636	0
5.196	295.587	0
5.197	251.538	0
5.198	209.5	0
5.199	167.451	0
5.2	128.411	0
5.201	91.3617	0
5.202	62.322	0
5.203	42.2721	0
5.204	30.232	0
5.205	25.1816	0
5.206	23.1411	0
5.207	21.0903	0
5.208	19.0493	0
5.209	19.0081	0
5.21	18.9568	0
5.211	16.9151	0
5.212	13.8633	0
5.213	8.8213	0
5.214	2.77905	0
5.215	-3.2734	0
5.216	-8.31606	0
5.217	-14.3589	0
5.218	-20.412	0
5.219	-24.4553	0
5.22	-26.4988	0
5.221	-29.5426	0
5.222	-30.5965	0
5.223	-31.6406	0
5.224	-29.685	0
5.225	-25.7296	0
5.226	-22.7743	0
5.227	-20.8193	0
5.228	-19.8745	0
5.229	-18.9199	0
5.23	-16.9656	0
5.231	-18.0114	0
5.232	-21.0575	0
5.233	-24.1037	0
5.234	-28.1502	0
5.235	-31.1969	0
5.236	-36.2438	0
5.237	-40.2909	0
5.238	-41.3382	0
5.239	-45.3858	0
5.24	-45.4335	0
5.241	-46.4815	0
5.242	-45.5296	0
5.243	-44.578	0
5.244	-42.6266	0
5.245	-36.6754	0
5.246	-33.7244	0
5.247	-29.7637	0
5.248	-27.8131	0
5.249	-27.8628	0
5.25	-24.9127	0
5.251	-23.9627	0
5.252	-25.003	0
5.253	-28.0535	0
5.254	-33.1043	0
5.255	-35.1552	0
5.256	-39.1964	0
5.257	-42.2477	0
5.258	-45.2993	0
5.259	-49.3411	0
5.26	-48.3931	0
5.261	-47.4453	0
5.262	-48.4877	0
5.263	-46.5404	0
5.264	-42.5832	0
5.265	-37.6363	0
5.266	-32.6896	0
5.267	-28.7331	0
5.268	-26.7868	0
5.269	-24.8307	0
5.27	-22.8848	0
5.271	-20.9292	0
5.272	-22.9737	0
5.273	-27.0285	0
5.274	-30.0735	0
5.275	-32.1287	0
5.276	-36.1741	0
5.277	-41.2197	0
5.278	-45.2756	0
5.279	-48.3216	0
5.28	-46.3679	0
5.281	-46.4244	0
5.282	-45.4711	0
5.283	-44.518	0
5.284	-41.5651	0
5.285	-35.6124	0
5.286	-31.67	0
5.287	-27.7178	0
5.288	-25.7657	0
5.289	-22.8139	0
5.29	-19.8624	0
5.291	-18.911	0
5.292	-18.9598	0
5.293	-22.0089	0
5.294	-25.0581	0
5.295	-27.1076	0
5.296	-32.1573	0
5.297	-34.2072	0
5.298	-36.2573	0
5.299	-37.3077	0
5.3	-36.3582	0
5.301	-37.409	0
5.302	-36.46	0
5.303	-35.5112	0
5.304	-32.5626	0
5.305	-26.6142	0
5.306	-21.6561	0
5.307	-17.7081	0
5.308	-15.7604	0
5.309	-14.8129	0
5.31	-11.8556	0
5.311	-12.9085	0
5.312	-12.9616	0
5.313	-16.015	0
5.314	-19.0585	0
5.315	-21.1123	0
5.316	-24.1563	0
5.317	-28.2105	0
5.318	-30.2649	0
5.319	-31.3096	0
5.32	-31.3644	0
5.321	-32.4095	0
5.322	-31.4648	0
5.323	-29.5103	0
5.324	-27.566	0
5.325	-22.6119	0
5.326	-16.6581	0
5.327	-12.7144	0
5.328	-9.761	0
5.329	-7.81779	0
5.33	-5.8648	0
5.331	-2.91202	0
5.332	-3.96946	0
5.333	-7.01711	0
5.334	-11.065	0
5.335	-15.1131	0
5.336	-17.1614	0
5.337	-19.2199	0
5.338	-23.2686	0
5.339	-23.3176	0
5.34	-24.3667	0
5.341	-23.4161	0
5.342	-23.4657	0
5.343	-21.5155	0
5.344	-18.5656	0
5.345	-11.6158	0
5.346	-6.66629	0
5.347	-1.71697	0
5.348	-0.767868	0
5.349	2.18102	0
5.35	5.12969	0
5.351	6.07814	0
5.352	5.02638	0
5.353	1.9744	0
5.354	-2.0678	0
5.355	-3.12021	0
5.356	-7.17284	0
5.357	-8.22569	0
5.358	-11.2788	0
5.359	-13.322	0
5.36	-11.3755	0
5.361	-12.4292	0
5.362	-13.4732	0
5.363	-11.5273	0
5.364	-8.57169	0
5.365	-3.62627	0
5.366	1.31893	0
5.367	6.27392	0
5.368	8.21868	0
5.369	12.1732	0
5.37	13.1176	0
5.371	16.0717	0
5.372	16.0256	0
5.373	12.9693	0
5.374	10.9227	0
5.375	6.87597	0
5.376	4.81899	0
5.377	0.771804	0
5.378	-1.2756	0
5.379	-3.33323	0
5.38	-1.38107	0
5.381	-2.42913	0
5.382	-0.477408	0
5.383	0.474096	0
5.384	3.41538	0
5.385	10.3665	0
5.386	15.3173	0
5.387	20.2679	0
5.388	23.2184	0
5.389	24.1685	0
5.39	27.1185	0
5.391	26.0683	0
5.392	26.0178	0
5.393	23.9672	0
5.394	21.9163	0
5.395	18.8752	0
5.396	14.8238	0
5.397	11.7723	0
5.398	10.7205	0
5.399	9.66852	0
5.4	11.6263	0
5.401	11.5739	0
5.402	11.5213	0
5.403	14.4684	0
5.404	17.4253	0
5.405	24.372	0
5.406	28.3285	0
5.407	33.2748	0
5.408	35.2208	0
5.409	37.1767	0
5.41	39.1223	0
5.411	41.0777	0
5.412	40.0228	0
5.413	36.9778	0
5.414	33.9325	0
5.415	30.877	0
5.416	27.8313	0
5.417	25.7754	0
5.418	23.7293	0
5.419	23.6829	0
5.42	24.6363	0
5.421	24.5795	0
5.422	25.5325	0
5.423	26.4853	0
5.424	29.4378	0
5.425	35.3902	0
5.426	39.3423	0
5.427	43.2941	0
5.428	45.2358	0
5.429	45.1873	0
5.43	49.1385	0
5.431	51.0895	0
5.432	50.0503	0
5.433	46.0009	0
5.434	41.9512	0
5.435	39.9013	0
5.436	33.8512	0
5.437	29.8009	0
5.438	27.7504	0
5.439	25.7096	0
5.44	26.6587	0
5.441	24.6075	0
5.442	24.5561	0
5.443	25.5144	0
5.444	28.4626	0
5.445	33.4205	0
5.446	36.3682	0
5.447	39.3157	0
5.448	39.273	0
5.449	39.22	0
5.45	40.1769	0
5.451	39.1235	0
5.452	37.0799	0
5.453	32.036	0
5.454	26.982	0
5.455	20.9377	0
5.456	17.8932	0
5.457	12.8385	0
5.458	6.79356	0
5.459	3.7484	0
5.46	2.70302	0
5.461	-0.352573	0
5.462	-1.39839	0
5.463	-1.44443	0
5.464	0.509309	0
5.465	4.46283	0
5.466	7.41613	0
5.467	8.3692	0
5.468	7.32206	0
5.469	7.27469	0
5.47	8.22711	0
5.471	7.1793	0
5.472	4.13127	0
5.473	-1.91698	0
5.474	-7.96545	0
5.475	-13.0041	0
5.476	-20.0531	0
5.477	-25.1022	0
5.478	-30.1515	0
5.479	-32.1911	0
5.48	-36.2409	0
5.481	-36.2909	0
5.482	-37.3312	0
5.483	-37.3816	0
5.484	-36.4223	0
5.485	-32.4732	0
5.486	-28.5144	0
5.487	-26.5657	0
5.488	-24.6073	0
5.489	-24.6591	0
5.49	-23.7011	0
5.491	-25.7433	0
5.492	-28.7958	0
5.493	-33.8385	0
5.494	-38.8814	0
5.495	-42.9245	0
5.496	-48.9779	0
5.497	-54.0214	0
5.498	-57.0652	0
5.499	-57.1092	0
5.5	-58.1535	0
5.501	-60.1979	0
5.502	-61.2426	0
5.503	-60.2875	0
5.504	-57.3326	0
5.505	-52.378	0
5.506	-49.4236	0
5.507	-46.4693	0
5.508	-45.5154	0
5.509	-43.5616	0
5.51	-42.6081	0
5.511	-43.6447	0
5.512	-46.6917	0
5.513	-49.7388	0
5.514	-53.7761	0
5.515	-58.8237	0
5.516	-63.8715	0
5.517	-66.9095	0
5.518	-69.9578	0
5.519	-71.9962	0
5.52	-72.0449	0
5.521	-72.0838	0
5.522	-71.133	0
5.523	-70.1723	0
5.524	-65.2219	0
5.525	-59.2617	0
5.526	-55.3017	0
5.527	-52.352	0
5.528	-50.3925	0
5.529	-49.4332	0
5.53	-47.4741	0
5.531	-47.5252	0
5.532	-49.5666	0
5.533	-51.6082	0
5.534	-55.65	0
5.535	-59.692	0
5.536	-61.7343	0
5.537	-66.7768	0
5.538	-69.8195	0
5.539	-70.8624	0
5.54	-71.9056	0
5.541	-70.949	0
5.542	-69.9926	0
5.543	-68.0364	0
5.544	-64.0705	0
5.545	-58.1147	0
5.546	-54.1592	0
5.547	-51.194	0
5.548	-49.2389	0
5.549	-47.2841	0
5.55	-45.3195	0
5.551	-44.3651	0
5.552	-45.4109	0
5.553	-47.447	0
5.554	-51.4933	0
5.555	-55.5298	0
5.556	-58.5666	0
5.557	-62.6135	0
5.558	-64.6507	0
5.559	-66.6981	0
5.56	-65.7358	0
5.561	-67.7737	0
5.562	-65.8117	0
5.563	-63.8601	0
5.564	-59.8986	0
5.565	-53.9374	0
5.566	-49.9763	0
5.567	-47.0156	0
5.568	-45.055	0
5.569	-43.0947	0
5.57	-40.1345	0
5.571	-41.1747	0
5.572	-42.215	0
5.573	-44.2556	0
5.574	-48.2964	0
5.575	-51.3374	0
5.576	-55.3686	0
5.577	-59.4101	0
5.578	-61.4518	0
5.579	-62.4937	0
5.58	-63.5258	0
5.581	-61.5682	0
5.582	-60.6108	0
5.583	-59.6436	0
5.584	-55.6866	0
5.585	-49.7199	0
5.586	-46.7634	0
5.587	-43.7971	0
5.588	-39.841	0
5.589	-38.8752	0
5.59	-38.9096	0
5.591	-36.9542	0
5.592	-38.9891	0
5.593	-41.0241	0
5.594	-46.0694	0
5.595	-48.105	0
5.596	-52.1407	0
5.597	-55.1767	0
5.598	-57.2129	0
5.599	-59.2493	0
5.6	-58.286	0
5.601	-57.3228	0
5.602	-56.36	0
5.603	-53.3973	0
5.604	-50.4348	0
5.605	-45.4726	0
5.606	-39.5106	0
5.607	-36.5489	0
5.608	-36.5773	0
5.609	-33.616	0
5.61	-32.6549	0
5.611	-32.6941	0
5.612	-35.7235	0
5.613	-38.763	0
5.614	-41.7929	0
5.615	-46.8329	0
5.616	-49.8732	0
5.617	-53.9037	0
5.618	-57.9344	0
5.619	-58.9754	0
5.62	-59.0066	0
5.621	-58.048	0
5.622	-58.0796	0
5.623	-56.1115	0
5.624	-51.1536	0
5.625	-45.1859	0
5.626	-40.2184	0
5.627	-37.2512	0
5.628	-35.2842	0
5.629	-33.3174	0
5.63	-32.3509	0
5.631	-31.3846	0
5.632	-34.4185	0
5.633	-36.4526	0
5.634	-40.487	0
5.635	-44.5216	0
5.636	-46.5564	0
5.637	-48.5914	0
5.638	-51.6267	0
5.639	-52.6622	0
5.64	-53.6879	0
5.641	-52.7239	0
5.642	-52.7601	0
5.643	-51.7865	0
5.644	-47.8231	0
5.645	-42.85	0
5.646	-37.8871	0
5.647	-34.9244	0
5.648	-31.9519	0
5.649	-30.9797	0
5.65	-29.0177	0
5.651	-29.046	0
5.652	-31.0844	0
5.653	-33.1131	0
5.654	-37.142	0
5.655	-40.1712	0
5.656	-44.2105	0
5.657	-47.2401	0
5.658	-50.27	0
5.659	-51.3	0
5.66	-51.3303	0
5.661	-52.3608	0
5.662	-51.3916	0
5.663	-49.4226	0
5.664	-45.4538	0
5.665	-42.4852	0
5.666	-36.5168	0
5.667	-32.5487	0
5.668	-32.5709	0
5.669	-29.6032	0
5.67	-28.6358	0
5.671	-29.6586	0
5.672	-30.6916	0
5.673	-33.7249	0
5.674	-37.7484	0
5.675	-41.7821	0
5.676	-44.806	0
5.677	-48.8402	0
5.678	-50.8646	0
5.679	-51.8992	0
5.68	-52.9241	0
5.681	-52.9592	0
5.682	-51.9845	0
5.683	-51.0101	0
5.684	-46.0358	0
5.685	-41.0718	0
5.686	-36.0981	0
5.687	-34.1246	0
5.688	-30.1513	0
5.689	-28.1782	0
5.69	-25.2053	0
5.691	-27.2327	0
5.692	-28.2603	0
5.693	-31.2882	0
5.694	-34.3163	0
5.695	-38.3446	0
5.696	-42.3731	0
5.697	-46.4019	0
5.698	-49.4209	0
5.699	-51.4501	0
5.7	-53.4795	0
5.701	-51.5092	0
5.702	-51.5291	0
5.703	-49.5593	0
5.704	-45.5797	0
5.705	-41.6103	0
5.706	-35.6311	0
5.707	-33.6622	0
5.708	-30.6834	0
5.709	-29.715	0
5.71	-28.7367	0
5.711	-29.7587	0
5.712	-30.7909	0
5.713	-34.8134	0
5.714	-38.8361	0
5.715	-42.859	0
5.716	-44.8821	0
5.717	-47.9155	0
5.718	-49.9391	0
5.719	-49.9629	0
5.72	-48.987	0
5.721	-51.0112	0
5.722	-51.0358	0
5.723	-48.0605	0
5.724	-43.0755	0
5.725	-37.1007	0
5.726	-32.1262	0
5.727	-29.1518	0
5.728	-26.1777	0
5.729	-25.1939	0
5.73	-25.2203	0
5.731	-23.2469	0
5.732	-26.2637	0
5.733	-30.2907	0
5.734	-34.308	0
5.735	-37.3356	0
5.736	-41.3533	0
5.737	-44.3813	0
5.738	-46.3995	0
5.739	-47.418	0
5.74	-47.4467	0
5.741	-48.4656	0
5.742	-49.4847	0
5.743	-45.5041	0
5.744	-40.5337	0
5.745	-34.5535	0
5.746	-30.5736	0
5.747	-28.5939	0
5.748	-25.6144	0
5.749	-24.6352	0
5.75	-23.6562	0
5.751	-24.6774	0
5.752	-27.6989	0
5.753	-30.7206	0
5.754	-33.7325	0
5.755	-36.7547	0
5.756	-41.7771	0
5.757	-44.7997	0
5.758	-47.8125	0
5.759	-47.8356	0
5.76	-47.859	0
5.761	-47.8725	0
5.762	-48.8963	0
5.763	-43.9103	0
5.764	-38.9346	0
5.765	-34.949	0
5.766	-30.9737	0
5.767	-26.9887	0
5.768	-25.0039	0
5.769	-22.0293	0
5.77	-21.0449	0
5.771	-22.0608	0
5.772	-24.0769	0
5.773	-28.0932	0
5.774	-31.1198	0
5.775	-36.1366	0
5.776	-40.1537	0
5.777	-42.1709	0
5.778	-45.1884	0
5.779	-45.2062	0
5.78	-46.2241	0
5.781	-45.2323	0
5.782	-45.2508	0
5.783	-42.2695	0
5.784	-38.2884	0
5.785	-32.3075	0
5.786	-28.3169	0
5.787	-26.3365	0
5.788	-23.3563	0
5.789	-20.3664	0
5.79	-19.3867	0
5.791	-19.3972	0
5.792	-23.418	0
5.793	-25.429	0
5.794	-29.4502	0
5.795	-33.4617	0
5.796	-38.4734	0
5.797	-42.4953	0
5.798	-44.5075	0
5.799	-47.5199	0
5.8	-45.5325	0
5.801	-45.5454	0
5.802	-45.5685	0
5.803	-41.5819	0
5.804	-38.5954	0
5.805	-30.6092	0
5.806	-26.6233	0
5.807	-23.6376	0
5.808	-21.6521	0
5.809	-19.6568	0
5.81	-19.6718	0
5.811	-19.687	0
5.812	-20.7024	0
5.813	-24.7181	0
5.814	-27.724	0
5.815	-32.7402	0
5.816	-35.7566	0
5.817	-38.7632	0
5.818	-41.78	0
5.819	-41.7871	0
5.82	-41.8045	0
5.821	-41.812	0
5.822	-40.8298	0
5.823	-35.8378	0
5.824	-31.8461	0
5.825	-26.8646	0
5.826	-22.8733	0
5.827	-20.8823	0
5.828	-17.8915	0
5.829	-14.9109	0
5.83	-12.9206	0
5.831	-14.9305	0
5.832	-16.9406	0
5.833	-21.951	0
5.834	-25.9616	0
5.835	-31.9724	0
5.836	-36.9835	0
5.837	-38.9948	0
5.838	-41.0064	0
5.839	-42.0082	0
5.84	-41.0202	0
5.841	-43.0324	0
5.842	-41.0449	0
5.843	-38.0477	0
5.844	-34.0606	0
5.845	-29.0738	0
5.846	-22.0772	0
5.847	-18.0909	0
5.848	-17.0948	0
5.849	-15.109	0
5.85	-15.1133	0
5.851	-14.1179	0
5.852	-17.1328	0
5.853	-20.1379	0
5.854	-24.1432	0
5.855	-28.1587	0
5.856	-32.1645	0
5.857	-36.1705	0
5.858	-37.1768	0
5.859	-39.1833	0
5.86	-37.19	0
5.861	-38.197	0
5.862	-36.2042	0
5.863	-34.2117	0
5.864	-28.2193	0
5.865	-24.2272	0
5.866	-19.2354	0
5.867	-17.2438	0
5.868	-15.2524	0
5.869	-13.2513	0
5.87	-12.2604	0
5.871	-12.2697	0
5.872	-14.2693	0
5.873	-19.2791	0
5.874	-22.2891	0
5.875	-26.2894	0
5.876	-30.2999	0
5.877	-33.3006	0
5.878	-36.3116	0
5.879	-37.3129	0
5.88	-37.3143	0
5.881	-37.326	0
5.882	-36.328	0
5.883	-34.3301	0
5.884	-28.3325	0
5.885	-23.3452	0
5.886	-19.3481	0
5.887	-16.3512	0
5.888	-14.3545	0
5.889	-10.3581	0
5.89	-9.36198	0
5.891	-10.366	0
5.892	-13.3704	0
5.893	-16.3749	0
5.894	-20.3797	0
5.895	-24.3847	0
5.896	-28.38	0
5.897	-33.3854	0
5.898	-35.3912	0
5.899	-36.3871	0
5.9	-37.3934	0
5.901	-36.3998	0
5.902	-36.3965	0
5.903	-33.4034	0
5.904	-27.4006	0
5.905	-22.4079	0
5.906	-18.4056	0
5.907	-14.4134	0
5.908	-11.4116	0
5.909	-11.4099	0
5.91	-9.41849	0
5.911	-10.4173	0
5.912	-11.4164	0
5.913	-15.4157	0
5.914	-19.4252	0
5.915	-22.425	0
5.916	-27.425	0
5.917	-31.4252	0
5.918	-34.4257	0
5.919	-34.4265	0
5.92	-35.4274	0
5.921	-35.4286	0
5.922	-33.4301	0
5.923	-30.4318	0
5.924	-23.4237	0
5.925	-18.4258	0
5.926	-15.4282	0
5.927	-12.4309	0
5.928	-11.4237	0
5.929	-8.42685	0
5.93	-8.4202	0
5.931	-8.42379	0
5.932	-11.4276	0
5.933	-15.4217	0
5.934	-18.426	0
5.935	-25.4205	0
5.936	-28.4153	0
5.937	-32.4203	0
5.938	-34.4156	0
5.939	-36.4111	0
5.94	-35.4169	0
5.941	-35.4128	0
5.942	-35.409	0
5.943	-32.4055	0
5.944	-24.4022	0
5.945	-20.3991	0
5.946	-14.3963	0
5.947	-12.3937	0
5.948	-10.3914	0
5.949	-7.38928	0
5.95	-7.38742	0
5.951	-8.38579	0
5.952	-11.3844	0
5.953	-14.3833	0
5.954	-17.3723	0
5.955	-21.3717	0
5.956	-26.3713	0
5.957	-30.3711	0
5.958	-32.3611	0
5.959	-30.3614	0
5.96	-32.3519	0
5.961	-33.3527	0
5.962	-31.3437	0
5.963	-28.345	0
5.964	-23.3365	0
5.965	-18.3382	0
5.966	-13.3302	0
5.967	-10.3224	0
5.968	-7.32483	0
5.969	-4.31752	0
5.97	-4.31045	0
5.971	-6.30362	0
5.972	-9.29703	0
5.973	-13.2907	0
5.974	-16.2946	0
5.975	-21.2887	0
5.976	-24.2831	0
5.977	-28.2777	0
5.978	-31.2626	0
5.979	-31.2577	0
5.98	-32.253	0
5.981	-31.2486	0
5.982	-31.2444	0
5.983	-27.2404	0
5.984	-22.2267	0
5.985	-16.2233	0
5.986	-13.2201	0
5.987	-11.2071	0
5.988	-10.2044	0
5.989	-10.2019	0
5.99	-8.1896	0
5.991	-9.18759	0
5.992	-11.1758	0
5.993	-16.1743	0
5.994	-19.163	0
5.995	-22.1519	0
5.996	-26.1511	0
5.997	-30.1406	0
5.998	-32.1302	0
5.999	-33.1202	0
6	-34.1203	0
6.001	-34.1107	0
6.002	-33.1014	0
6.003	-31.0922	0
6.004	-26.0834	0
6.005	-20.0747	0
6.006	-15.0663	0
6.007	-11.0582	0
6.008	-9.05028	0
6.009	-7.04261	0
6.01	-7.03518	0
6.011	-6.018	0
6.012	-8.01106	0
6.013	-12.0044	0
6.014	-14.9979	0
6.015	-20.9817	0
6.016	-22.9757	0
6.017	-26.97	0
6.018	-27.9545	0
6.019	-26.9492	0
6.02	-27.9342	0
6.021	-24.9295	0
6.022	-24.9149	0
6.023	-20.9107	0
6.024	-15.8966	0
6.025	-9.88283	0
6.026	-4.87928	0
6.027	-2.86597	0
6.028	0.147095	0
6.029	3.14992	0
6.03	4.1625	0
6.031	3.17484	0
6.032	0.186938	0
6.033	-2.80121	0
6.034	-7.7896	0
6.035	-11.7782	0
6.036	-15.7671	0
6.037	-19.7562	0
6.038	-22.7456	0
6.039	-22.7352	0
6.04	-21.725	0
6.041	-22.7151	0
6.042	-20.6954	0
6.043	-17.686	0
6.044	-12.6768	0
6.045	-5.6679	0
6.046	-2.64921	0
6.047	0.359247	0
6.048	1.37746	0
6.049	3.38542	0
6.05	3.39315	0
6.051	1.41062	0
6.052	-1.58214	0
6.053	-5.56515	0
6.054	-9.5484	0
6.055	-15.5419	0
6.056	-19.5256	0
6.057	-23.5096	0
6.058	-27.5038	0
6.059	-27.4883	0
6.06	-26.473	0
6.061	-27.458	0
6.062	-26.4432	0
6.063	-23.4286	0
6.064	-17.4243	0
6.065	-13.4102	0
6.066	-8.39642	0
6.067	-7.38284	0
6.068	-6.3695	0
6.069	-3.34641	0
6.07	-4.33356	0
6.071	-2.32096	0
6.072	-6.3086	0
6.073	-10.2965	0
6.074	-12.2846	0
6.075	-17.263	0
6.076	-20.2516	0
6.077	-23.2405	0
6.078	-25.2196	0
6.079	-25.2089	0
6.08	-27.1885	0
6.081	-26.1784	0
6.082	-26.1584	0
6.083	-23.1488	0
6.084	-18.1293	0
6.085	-12.1202	0
6.086	-7.10122	0
6.087	-5.08253	0
6.088	-3.07408	0
6.089	-1.05588	0
6.09	-0.0379197	0
6.091	-2.03021	0
6.092	-5.01274	0
6.093	-8.99552	0
6.094	-12.9785	0
6.095	-16.9618	0
6.096	-20.9453	0
6.097	-23.9291	0
6.098	-24.9131	0
6.099	-25.8973	0
6.1	-26.8818	0
6.101	-25.8666	0
6.102	-25.8515	0
6.103	-22.8368	0
6.104	-16.8122	0
6.105	-13.798	0
6.106	-8.78393	0
6.107	-6.77014	0
6.108	-4.74659	0
6.109	-1.73329	0
6.11	-1.72024	0
6.111	-1.69743	0
6.112	-5.68487	0
6.113	-9.66256	0
6.114	-12.6505	0
6.115	-17.6287	0
6.116	-22.6171	0
6.117	-26.5958	0
6.118	-26.5847	0
6.119	-26.5638	0
6.12	-25.5432	0
6.121	-25.5329	0
6.122	-24.5128	0
6.123	-22.4929	0
6.124	-17.4733	0
6.125	-13.454	0
6.126	-8.44484	0
6.127	-6.42597	0
6.128	-3.40734	0
6.129	-0.388965	0
6.13	-1.37083	0
6.131	-1.35295	0
6.132	-4.33531	0
6.133	-8.31792	0
6.134	-11.3008	0
6.135	-15.2739	0
6.136	-19.2572	0
6.137	-22.2408	0
6.138	-25.2247	0
6.139	-26.2087	0
6.14	-25.1831	0
6.141	-26.1677	0
6.142	-26.1525	0
6.143	-22.1276	0
6.144	-16.1129	0
6.145	-11.0884	0
6.146	-7.07427	0
6.147	-4.05033	0
6.148	-3.03664	0
6.149	-0.0131957	0
6.15	0	0
6.151	0.0229486	0
6.152	-3.96435	0
6.153	-9.94189	0
6.154	-14.9197	0
6.155	-20.8977	0
6.156	-26.886	0
6.157	-33.8645	0
6.158	-38.8433	0
6.159	-42.8223	0
6.16	-48.8016	0
6.161	-53.7811	0
6.162	-57.7708	0
6.163	-60.7508	0
6.164	-59.731	0
6.165	-57.7115	0
6.166	-56.6922	0
6.167	-54.6631	0
6.168	-51.6443	0
6.169	-48.6257	0
6.17	-46.6074	0
6.171	-44.5893	0
6.172	-43.5714	0
6.173	-43.5438	0
6.174	-45.5264	0
6.175	-48.5092	0
6.176	-51.4923	0
6.177	-53.4656	0
6.178	-51.4491	0
6.179	-43.4229	0
6.18	-28.4069	0
6.181	-4.38119	0
6.182	25.6343	0
6.183	58.6596	0
6.184	99.6747	0
6.185	136.7	0
6.186	172.714	0
6.187	202.738	0
6.188	227.763	0
6.189	251.777	0
6.19	269.8	0
6.191	285.824	0
6.192	296.847	0
6.193	307.86	0
6.194	317.883	0
6.195	329.905	0
6.196	342.927	0
6.197	353.95	0
6.198	367.971	0
6.199	382.993	0
6.2	392.015	1
6.201	401.036	0
6.202	407.057	0
6.203	410.077	0
6.204	408.098	0
6.205	396.118	0
6.206	373.138	0
6.207	341.168	0
6.208	304.188	0
6.209	264.207	0
6.21	221.226	0
6.211	178.255	0
6.212	135.274	0
6.213	95.2928	0
6.214	62.3211	0
6.215	35.3392	0
6.216	14.3671	0
6.217	0.384803	0
6.218	-7.58773	0
6.219	-14.5705	0
6.22	-18.5434	0
6.221	-21.5266	0
6.222	-23.5	0
6.223	-24.4836	0
6.224	-21.4574	0
6.225	-20.4314	0
6.226	-18.4157	0
6.227	-19.3901	0
6.228	-19.3648	0
6.229	-17.3397	0
6.23	-20.3247	0
6.231	-23.3	0
6.232	-28.2755	0
6.233	-34.2512	0
6.234	-39.2271	0
6.235	-46.2033	0
6.236	-52.1796	0
6.237	-57.1561	0
6.238	-61.1329	0
6.239	-64.1098	0
6.24	-65.0869	0
6.241	-66.0643	0
6.242	-66.0419	0
6.243	-64.0196	0
6.244	-59.9976	0
6.245	-56.9657	0
6.246	-52.9441	0
6.247	-50.9227	0
6.248	-48.9015	0
6.249	-46.8704	0
6.25	-46.8496	0
6.251	-46.829	0
6.252	-49.7985	0
6.253	-54.7783	0
6.254	-58.7583	0
6.255	-63.7284	0
6.256	-68.7088	0
6.257	-71.6794	0
6.258	-72.6601	0
6.259	-72.6311	0
6.26	-73.6122	0
6.261	-72.5836	0
6.262	-71.5551	0
6.263	-67.5368	0
6.264	-60.5088	0
6.265	-55.4809	0
6.266	-51.4632	0
6.267	-49.4357	0
6.268	-46.4084	0
6.269	-46.3813	0
6.27	-44.3643	0
6.271	-45.3376	0
6.272	-51.3111	0
6.273	-52.2847	0
6.274	-55.2585	0
6.275	-60.2326	0
6.276	-64.2068	0
6.277	-67.1812	0
6.278	-70.1558	0
6.279	-70.1305	0
6.28	-70.1055	0
6.281	-69.0806	0
6.282	-67.0559	0
6.283	-64.0315	0
6.284	-59.0071	0
6.285	-51.983	0
6.286	-45.9491	0
6.287	-44.9253	0
6.288	-40.9018	0
6.289	-37.8784	0
6.29	-37.8452	0
6.291	-38.8221	0
6.292	-41.7993	0
6.293	-44.7666	0
6.294	-50.7441	0
6.295	-53.7218	0
6.296	-57.6897	0
6.297	-62.6677	0
6.298	-62.6359	0
6.299	-61.6143	0
6.3	-62.5829	0
6.301	-60.5616	0
6.302	-59.5306	0
6.303	-54.5097	0
6.304	-50.4789	0
6.305	-43.4484	0
6.306	-39.428	0
6.307	-36.3978	0
6.308	-35.3678	0
6.309	-31.3479	0
6.31	-31.3182	0
6.311	-32.2887	0
6.312	-34.2594	0
6.313	-38.2402	0
6.314	-41.2112	0
6.315	-45.1823	0
6.316	-49.1537	0
6.317	-52.1252	0
6.318	-54.0968	0
6.319	-53.0687	0
6.32	-55.0407	0
6.321	-52.0128	0
6.322	-50.9852	0
6.323	-44.9577	0
6.324	-39.9303	0
6.325	-34.9032	0
6.326	-31.8762	0
6.327	-27.8493	0
6.328	-25.8226	0
6.329	-24.7961	0
6.33	-21.7698	0
6.331	-23.7336	0
6.332	-26.7075	0
6.333	-29.6817	0
6.334	-32.656	0
6.335	-36.6204	0
6.336	-41.595	0
6.337	-45.5698	0
6.338	-45.5347	0
6.339	-45.5098	0
6.34	-46.485	0
6.341	-46.4504	0
6.342	-44.426	0
6.343	-39.3917	0
6.344	-31.3675	0
6.345	-27.3436	0
6.346	-21.3097	0
6.347	-19.2861	0
6.348	-15.2525	0
6.349	-13.2192	0
6.35	-13.196	0
6.351	-13.1629	0
6.352	-15.14	0
6.353	-20.1072	0
6.354	-24.0746	0
6.355	-29.0522	0
6.356	-32.0199	0
6.357	-33.9877	0
6.358	-34.9557	0
6.359	-34.9338	0
6.36	-35.9021	0
6.361	-34.8706	0
6.362	-32.8391	0
6.363	-27.8079	0
6.364	-20.7867	0
6.365	-15.7558	0
6.366	-10.7249	0
6.367	-9.69423	0
6.368	-7.66368	0
6.369	-5.63328	0
6.37	-4.60302	0
6.371	-5.5729	0
6.372	-7.54292	0
6.373	-10.5131	0
6.374	-13.4834	0
6.375	-18.4538	0
6.376	-22.4244	0
6.377	-24.3952	0
6.378	-26.366	0
6.379	-25.337	0
6.38	-24.2982	0
6.381	-23.2695	0
6.382	-23.2409	0
6.383	-18.2124	0
6.384	-12.1841	0
6.385	-7.14596	0
6.386	-3.11792	0
6.387	1.90998	0
6.388	4.93774	0
6.389	6.97538	0
6.39	10.0029	0
6.391	9.04024	0
6.392	7.06747	0
6.393	4.09457	0
6.394	0.131541	0
6.395	-4.84162	0
6.396	-8.80492	0
6.397	-12.7783	0
6.398	-12.7519	0
6.399	-13.7156	0
6.4	-13.6894	0
6.401	-12.6533	0
6.402	-9.6174	0
6.403	-4.59159	0
6.404	0.444087	0
6.405	5.46964	0
6.406	10.5051	0
6.407	16.5404	0
6.408	18.5655	0
6.409	21.6006	0
6.41	24.6255	0
6.411	22.6603	0
6.412	18.695	0
6.413	15.7296	0
6.414	11.754	0
6.415	8.7883	0
6.416	4.82249	0
6.417	1.85656	0
6.418	1.89051	0
6.419	2.91434	0
6.42	3.94805	0
6.421	3.98164	0
6.422	7.01512	0
6.423	12.0485	0
6.424	17.0817	0
6.425	24.1148	0
6.426	29.1478	0
6.427	32.1707	0
6.428	34.2035	0
6.429	37.2362	0
6.43	38.2687	0
6.431	38.3011	0
6.432	35.3334	0
6.433	31.3756	0
6.434	28.4077	0
6.435	25.4397	0
6.436	21.4716	0
6.437	18.5033	0
6.438	17.535	0
6.439	15.5665	0
6.44	16.5979	0
6.441	16.6293	0
6.442	18.6705	0
6.443	22.7016	0
6.444	27.7325	0
6.445	31.7634	0
6.446	36.7942	0
6.447	38.8349	0
6.448	40.8654	0
6.449	42.8959	0
6.45	42.9362	0
6.451	41.9665	0
6.452	38.9966	0
6.453	35.0267	0
6.454	32.0666	0
6.455	27.0964	0
6.456	23.1362	0
6.457	19.1658	0
6.458	17.1953	0
6.459	16.2348	0
6.46	15.2641	0
6.461	15.3033	0
6.462	15.3324	0
6.463	18.3715	0
6.464	22.4004	0
6.465	25.4392	0
6.466	28.468	0
6.467	30.5066	0
6.468	32.5351	0
6.469	33.5736	0
6.47	30.6019	0
6.471	30.6402	0
6.472	25.6684	0
6.473	20.7064	0
6.474	14.7444	0
6.475	8.77227	0
6.476	1.81005	0
6.477	-4.15225	0
6.478	-8.12465	0
6.479	-11.0871	0
6.48	-13.0497	0
6.481	-15.0224	0
6.482	-15.9851	0
6.483	-11.948	0
6.484	-8.92094	0
6.485	-4.88397	0
6.486	-2.84708	0
6.487	-1.81028	0
6.488	-1.77357	0
6.489	-2.74695	0
6.49	-3.71041	0
6.491	-6.67396	0
6.492	-10.6376	0
6.493	-16.6013	0
6.494	-22.5751	0
6.495	-28.539	0
6.496	-34.503	0
6.497	-39.467	0
6.498	-42.4311	0
6.499	-44.3954	0
6.5	-45.3597	0
6.501	-45.324	0
6.502	-46.2885	0
6.503	-43.253	0
6.504	-40.2177	0
6.505	-35.1823	0
6.506	-33.1471	0
6.507	-32.112	0
6.508	-29.0769	0
6.509	-29.0419	0
6.51	-30.007	0
6.511	-32.9722	0
6.512	-35.9374	0
6.513	-40.9027	0
6.514	-47.8681	0
6.515	-51.8335	0
6.516	-56.7991	0
6.517	-61.7647	0
6.518	-63.7304	0
6.519	-63.6961	0
6.52	-66.6619	0
6.521	-65.6178	0
6.522	-64.5838	0
6.523	-60.5498	0
6.524	-56.5159	0
6.525	-50.4821	0
6.526	-48.4484	0
6.527	-46.4047	0
6.528	-43.3711	0
6.529	-41.3375	0
6.53	-40.304	0
6.531	-43.2606	0
6.532	-45.2273	0
6.533	-49.194	0
6.534	-53.1607	0
6.535	-58.1176	0
6.536	-63.0845	0
6.537	-66.0515	0
6.538	-67.0185	0
6.539	-67.9756	0
6.54	-68.9428	0
6.541	-68.91	0
6.542	-67.8673	0
6.543	-62.8346	0
6.544	-56.802	0
6.545	-50.7595	0
6.546	-47.727	0
6.547	-43.6946	0
6.548	-40.6522	0
6.549	-38.6199	0
6.55	-39.5777	0
6.551	-41.5455	0
6.552	-43.5134	0
6.553	-46.4713	0
6.554	-49.4393	0
6.555	-55.3973	0
6.556	-59.3654	0
6.557	-62.3235	0
6.558	-63.2917	0
6.559	-63.26	0
6.56	-64.2183	0
6.561	-63.1867	0
6.562	-62.1451	0
6.563	-57.1135	0
6.564	-50.0721	0
6.565	-45.0406	0
6.566	-39.9992	0
6.567	-38.9679	0
6.568	-34.9266	0
6.569	-33.8954	0
6.57	-31.8542	0
6.571	-32.823	0
6.572	-36.7819	0
6.573	-40.7409	0
6.574	-44.7099	0
6.575	-49.6689	0
6.576	-52.638	0
6.577	-56.5971	0
6.578	-57.5663	0
6.579	-58.5255	0
6.58	-58.4848	0
6.581	-59.4541	0
6.582	-56.4134	0
6.583	-51.3828	0
6.584	-46.3423	0
6.585	-41.3017	0
6.586	-35.2712	0
6.587	-33.2308	0
6.588	-29.1904	0
6.589	-29.16	0
6.59	-28.1197	0
6.591	-30.0794	0
6.592	-33.0491	0
6.593	-37.0089	0
6.594	-39.9687	0
6.595	-44.9386	0
6.596	-48.8985	0
6.597	-51.8584	0
6.598	-52.8284	0
6.599	-54.7884	0
6.6	-52.7484	0
6.601	-52.7185	0
6.602	-50.6786	0
6.603	-44.6387	0
6.604	-38.5988	0
6.605	-33.569	0
6.606	-30.5293	0
6.607	-26.4895	0
6.608	-22.4598	0
6.609	-20.4201	0
6.61	-20.3804	0
6.611	-21.3408	0
6.612	-25.3112	0
6.613	-29.2716	0
6.614	-34.2321	0
6.615	-38.1926	0
6.616	-42.1631	0
6.617	-45.1236	0
6.618	-45.0842	0
6.619	-45.0447	0
6.62	-46.0153	0
6.621	-44.976	0
6.622	-42.9366	0
6.623	-38.8973	0
6.624	-33.858	0
6.625	-28.8287	0
6.626	-25.7894	0
6.627	-21.7502	0
6.628	-19.711	0
6.629	-18.6718	0
6.63	-17.6426	0
6.631	-18.6035	0
6.632	-22.5643	0
6.633	-25.5252	0
6.634	-29.4861	0
6.635	-34.457	0
6.636	-37.4179	0
6.637	-41.3789	0
6.638	-43.3398	0
6.639	-43.3008	0
6.64	-45.2618	0
6.641	-44.2328	0
6.642	-41.1938	0
6.643	-37.1549	0
6.644	-32.1159	0
6.645	-28.077	0
6.646	-24.038	0
6.647	-20.0091	0
6.648	-17.9702	0
6.649	-15.9313	0
6.65	-15.8924	0
6.651	-16.8535	0
6.652	-19.8147	0
6.653	-24.7858	0
6.654	-28.7469	0
6.655	-33.7081	0
6.656	-36.6693	0
6.657	-40.6304	0
6.658	-41.5916	0
6.659	-41.5628	0
6.66	-40.524	0
6.661	-40.4852	0
6.662	-38.4464	0
6.663	-35.4076	0
6.664	-29.3688	0
6.665	-23.33	0
6.666	-19.3012	0
6.667	-15.2624	0
6.668	-14.2236	0
6.669	-12.1848	0
6.67	-10.146	0
6.671	-10.1072	0
6.672	-14.0684	0
6.673	-17.0397	0
6.674	-21.0009	0
6.675	-25.9621	0
6.676	-31.9233	0
6.677	-34.8845	0
6.678	-36.8457	0
6.679	-36.8169	0
6.68	-36.7781	0
6.681	-37.7393	0
6.682	-35.7004	0
6.683	-30.6616	0
6.684	-25.6228	0
6.685	-20.584	0
6.686	-16.5551	0
6.687	-13.5163	0
6.688	-10.4774	0
6.689	-7.43853	0
6.69	-7.39966	0
6.691	-10.3608	0
6.692	-12.3319	0
6.693	-15.293	0
6.694	-18.2541	0
6.695	-23.2151	0
6.696	-27.1762	0
6.697	-31.1472	0
6.698	-33.1083	0
6.699	-36.0693	0
6.7	-35.0303	0
6.701	-35.9913	0
6.702	-33.9523	0
6.703	-30.9232	0
6.704	-22.8842	0
6.705	-18.8451	0
6.706	-14.806	0
6.707	-11.7669	0
6.708	-8.7378	0
6.709	-7.69866	0
6.71	-7.6595	0
6.711	-8.62033	0
6.712	-11.5911	0
6.713	-14.5519	0
6.714	-19.5127	0
6.715	-23.4734	0
6.716	-28.4342	0
6.717	-31.4049	0
6.718	-33.3655	0
6.719	-32.3262	0
6.72	-33.2868	0
6.721	-35.2574	0
6.722	-32.218	0
6.723	-28.1786	0
6.724	-23.1391	0
6.725	-19.1096	0
6.726	-15.0701	0
6.727	-13.0306	0
6.728	-8.99099	0
6.729	-7.96139	0
6.73	-6.92176	0
6.731	-7.88211	0
6.732	-10.8524	0
6.733	-15.8127	0
6.734	-17.773	0
6.735	-23.7432	0
6.736	-28.7034	0
6.737	-31.6636	0
6.738	-32.6237	0
6.739	-33.5938	0
6.74	-33.5539	0
6.741	-33.5139	0
6.742	-31.4839	0
6.743	-26.4439	0
6.744	-20.4038	0
6.745	-16.3737	0
6.746	-11.3336	0
6.747	-9.30338	0
6.748	-5.26316	0
6.749	-5.22292	0
6.75	-5.19263	0
6.751	-7.15231	0
6.752	-10.1119	0
6.753	-12.0815	0
6.754	-17.0411	0
6.755	-20.0106	0
6.756	-23.9701	0
6.757	-27.9295	0
6.758	-27.8989	0
6.759	-28.8583	0
6.76	-28.8276	0
6.761	-28.7869	0
6.762	-26.7561	0
6.763	-22.7153	0
6.764	-17.6844	0
6.765	-11.6435	0
6.766	-8.61257	0
6.767	-5.57157	0
6.768	-1.54053	0
6.769	-2.49944	0
6.77	-1.46831	0
6.771	-2.42712	0
6.772	-4.39589	0
6.773	-8.35461	0
6.774	-12.3233	0
6.775	-18.2819	0
6.776	-22.2505	0
6.777	-23.209	0
6.778	-24.1775	0
6.779	-25.1359	0
6.78	-24.1043	0
6.781	-24.0726	0
6.782	-22.0308	0
6.783	-15.999	0
6.784	-10.9572	0
6.785	-5.92531	0
6.786	-1.89335	0
6.787	0.148655	0
6.788	4.18072	0
6.789	5.22284	0
6.79	5.25501	0
6.791	3.28725	0
6.792	2.32954	0
6.793	-1.63812	0
6.794	-4.60571	0
6.795	-11.5632	0
6.796	-15.5307	0
6.797	-17.4981	0
6.798	-18.4655	0
6.799	-18.4228	0
6.8	-19.39	0
6.801	-20.3572	0
6.802	-17.3243	0
6.803	-15.2813	0
6.804	-9.24832	0
6.805	-2.21524	0
6.806	0.817902	0
6.807	3.85111	0
6.808	7.89439	0
6.809	6.92773	0
6.81	8.96113	0
6.811	6.9946	0
6.812	4.02814	0
6.813	1.06175	0
6.814	-3.89457	0
6.815	-8.86083	0
6.816	-13.827	0
6.817	-18.7931	0
6.818	-19.7592	0
6.819	-19.7252	0
6.82	-20.6911	0
6.821	-20.6569	0
6.822	-18.6227	0
6.823	-12.5884	0
6.824	-7.55398	0
6.825	-1.51953	0
6.826	2.515	0
6.827	5.5496	0
6.828	8.58427	0
6.829	10.619	0
6.83	9.65385	0
6.831	8.68875	0
6.832	6.72373	0
6.833	2.75879	0
6.834	-3.20608	0
6.835	-8.17087	0
6.836	-10.1356	0
6.837	-15.1002	0
6.838	-17.0648	0
6.839	-17.0292	0
6.84	-18.0036	0
6.841	-17.9679	0
6.842	-14.9322	0
6.843	-9.89632	0
6.844	-5.86038	0
6.845	0.175633	0
6.846	4.20173	0
6.847	6.23792	0
6.848	10.2742	0
6.849	11.3105	0
6.85	10.337	0
6.851	8.37349	0
6.852	5.4101	0
6.853	2.4468	0
6.854	-2.52642	0
6.855	-8.48955	0
6.856	-13.4526	0
6.857	-16.4255	0
6.858	-17.3884	0
6.859	-17.3512	0
6.86	-18.3239	0
6.861	-17.2865	0
6.862	-16.259	0
6.863	-10.2214	0
6.864	-4.19372	0
6.865	0.844052	0
6.866	4.88191	0
6.867	7.90987	0
6.868	10.9479	0
6.869	10.9761	0
6.87	12.0143	0
6.871	10.0426	0
6.872	6.08106	0
6.873	2.10958	0
6.874	-0.861797	0
6.875	-5.82308	0
6.876	-10.7943	0
6.877	-11.7554	0
6.878	-13.7263	0
6.879	-15.6972	0
6.88	-13.658	0
6.881	-14.6287	0
6.882	-12.5993	0
6.883	-7.55979	0
6.884	-1.53018	0
6.885	3.49953	0
6.886	6.53934	0
6.887	9.56926	0
6.888	12.5993	0
6.889	14.6294	0
6.89	14.6596	0
6.891	11.7	0
6.892	8.7304	0
6.893	7.76095	0
6.894	2.7916	0
6.895	-2.17765	0
6.896	-7.14679	0
6.897	-9.10582	0
6.898	-11.0747	0
6.899	-14.0436	0
6.9	-12.0123	0
6.901	-11.9809	0
6.902	-9.94934	0
6.903	-5.91772	0
6.904	1.11402	0
6.905	5.14587	0
6.906	9.17782	0
6.907	13.2099	0
6.908	16.2421	0
6.909	17.2744	0
6.91	17.3068	0
6.911	15.3293	0
6.912	12.3619	0
6.913	9.39469	0
6.914	4.42756	0
6.915	-1.53946	0
6.916	-7.50635	0
6.917	-10.4731	0
6.918	-9.4498	0
6.919	-10.4164	0
6.92	-10.3828	0
6.921	-10.3491	0
6.922	-7.32528	0
6.923	-1.29135	0
6.924	1.7427	0
6.925	7.76686	0
6.926	10.8012	0
6.927	13.8356	0
6.928	15.8601	0
6.929	16.8948	0
6.93	17.9195	0
6.931	15.9544	0
6.932	12.9795	0
6.933	11.0146	0
6.934	4.0499	0
6.935	1.0753	0
6.936	-2.88917	0
6.937	-5.86352	0
6.938	-5.83773	0
6.939	-5.80183	0
6.94	-6.77579	0
6.941	-5.73962	0
6.942	-4.71333	0
6.943	0.313093	0
6.944	5.34965	0
6.945	10.3763	0
6.946	14.4031	0
6.947	16.4401	0
6.948	20.4672	0
6.949	20.4944	0
6.95	20.5217	0
6.951	17.5592	0
6.952	15.5868	0
6.953	11.6145	0
6.954	6.64241	0
6.955	2.67042	0
6.956	-1.30143	0
6.957	-5.26315	0
6.958	-5.23473	0
6.959	-5.20617	0
6.96	-6.17748	0
6.961	-6.14865	0
6.962	-4.11968	0
6.963	-0.0905726	0
6.964	6.93867	0
6.965	11.9681	0
6.966	16.9976	0
6.967	19.0273	0
6.968	21.0471	0
6.969	22.077	0
6.97	21.1071	0
6.971	21.1373	0
6.972	17.1677	0
6.973	14.1982	0
6.974	9.21891	0
6.975	4.24972	0
6.976	-1.71933	0
6.977	-3.68823	0
6.978	-4.66698	0
6.979	-4.63559	0
6.98	-4.60405	0
6.981	-3.58237	0
6.982	-2.55053	0
6.983	2.48145	0
6.984	9.50358	0
6.985	13.5359	0
6.986	17.5583	0
6.987	20.5909	0
6.988	22.6136	0
6.989	25.6465	0
6.99	25.6695	0
6.991	23.7027	0
6.992	20.726	0
6.993	17.7595	0
6.994	11.7832	0
6.995	5.80698	0
6.996	1.84093	0
6.997	-2.13496	0
6.998	-2.1107	0
6.999	-2.07628	0
7	-2.0517	0
7.001	-3.02697	0
7.002	0.99792	0
7.003	5.03297	0
7.004	11.0582	0
7.005	16.0835	0
7.006	18.1091	0
7.007	20.1347	0
7.008	23.1606	0
7.009	24.1866	0
7.01	24.2128	0
7.011	23.2391	0
7.012	20.2656	0
7.013	16.2922	0
7.014	11.319	0
7.015	6.34602	0
7.016	1.37316	0
7.017	-1.59954	0
7.018	-3.57207	0
7.019	-3.54443	0
7.02	-4.51663	0
7.021	-3.49866	0
7.022	-1.47052	0
7.023	2.55778	0
7.024	6.58625	0
7.025	11.6049	0
7.026	15.6337	0
7.027	16.6627	0
7.028	20.6818	0
7.029	21.7111	0
7.03	20.7406	0
7.031	18.7603	0
7.032	14.7901	0
7.033	11.8101	0
7.034	5.84028	0
7.035	1.86063	0
7.036	-3.10885	0
7.037	-5.08816	0
7.038	-4.05729	0
7.039	-6.03624	0
7.04	-5.00503	0
7.041	-4.98363	0
7.042	-1.96206	0
7.043	4.06969	0
7.044	8.09161	0
7.045	13.1137	0
7.046	16.136	0
7.047	19.1685	0
7.048	23.1911	0
7.049	25.2139	0
7.05	27.2369	0
7.051	27.2601	0
7.052	24.2834	0
7.053	21.307	0
7.054	17.3307	0
7.055	13.3646	0
7.056	8.38871	0
7.057	6.41298	0
7.058	6.42744	0
7.059	4.45208	0
7.06	4.47691	0
7.061	5.50192	0
7.062	7.52711	0
7.063	13.5525	0
7.064	18.5781	0
7.065	24.6038	0
7.066	27.6198	0
7.067	31.6459	0
7.068	33.6722	0
7.069	34.6887	0
7.07	33.7154	0
7.071	31.7423	0
7.072	26.7594	0
7.073	24.7867	0
7.074	18.8141	0
7.075	13.8318	0
7.076	8.85964	0
7.077	6.87768	0
7.078	5.90592	0
7.079	4.92435	0
7.08	2.94297	0
7.081	2.97179	0
7.082	3.9908	0
7.083	9.02001	0
7.084	13.0394	0
7.085	17.059	0
7.086	19.0888	0
7.087	21.1088	0
7.088	23.129	0
7.089	24.1494	0
7.09	24.17	0
7.091	21.2008	0
7.092	18.2218	0
7.093	15.243	0
7.094	9.26436	0
7.095	3.28595	0
7.096	-1.69225	0
7.097	-4.67025	0
7.098	-4.64805	0
7.099	-6.62564	0
7.1	-5.60303	0
7.101	-6.58022	0
7.102	-2.5672	0
7.103	-0.543977	0
7.104	5.47945	0
7.105	10.5031	0
7.106	13.5269	0
7.107	17.541	0
7.108	21.5652	0
7.109	21.5897	0
7.11	20.6044	0
7.111	18.6293	0
7.112	15.6544	0
7.113	12.6697	0
7.114	8.69517	0
7.115	3.7109	0
7.116	-0.263167	0
7.117	-3.24702	0
7.118	-4.22066	0
7.119	-3.20409	0
7.12	-4.1773	0
7.121	-5.1603	0
7.122	-2.14308	0
7.123	3.88435	0
7.124	8.90199	0
7.125	12.9199	0
7.126	14.9379	0
7.127	17.9562	0
7.128	20.9847	0
7.129	22.0035	0
7.13	22.0224	0
7.131	20.0416	0
7.132	18.061	0
7.133	13.0806	0
7.134	9.10039	0
7.135	5.12043	0
7.136	0.140695	0
7.137	-2.83882	0
7.138	-3.81811	0
7.139	-4.79718	0
7.14	-5.77602	0
7.141	-6.76465	0
7.142	-3.74305	0
7.143	1.27878	0
7.144	5.30083	0
7.145	11.3131	0
7.146	13.3356	0
7.147	17.3583	0
7.148	21.3713	0
7.149	21.3945	0
7.15	22.4179	0
7.151	20.4315	0
7.152	17.4554	0
7.153	14.4695	0
7.154	9.4938	0
7.155	4.50835	0
7.156	-0.47686	0
7.157	-2.45184	0
7.158	-1.4366	0
7.159	-2.42112	0
7.16	-2.39541	0
7.161	-1.37946	0
7.162	0.636715	0
7.163	4.65313	0
7.164	10.6798	0
7.165	12.6967	0
7.166	16.7138	0
7.167	18.7311	0
7.168	21.7487	0
7.169	22.7665	0
7.17	23.7846	0
7.171	21.8029	0
7.172	20.8214	0
7.173	17.8402	0
7.174	10.8592	0
7.175	6.86847	0
7.176	1.88797	0
7.177	0.907703	0
7.178	-0.0723216	0
7.179	-2.0521	0
7.18	-2.04165	0
7.181	-2.02094	0
7.182	0	0
7.183	4.01119	0
7.184	10.0326	0
7.185	14.0443	0
7.186	16.0662	0
7.187	19.0784	0
7.188	20.1008	0
7.189	18.1134	0
7.19	15.1363	0
7.191	9.14945	0
7.192	2.17282	0
7.193	-6.81356	0
7.194	-17.7997	0
7.195	-27.7856	0
7.196	-35.7612	0
7.197	-41.7466	0
7.198	-44.7318	0
7.199	-46.7167	0
7.2	-47.7014	0
7.201	-46.6858	0
7.202	-40.67	0
7.203	-31.654	0
7.204	-24.6377	0
7.205	-16.6211	0
7.206	-9.60436	0
7.207	-3.58734	0
7.208	-0.570072	0
7.209	3.44744	0
7.21	7.46519	0
7.211	11.4832	0
7.212	20.4914	0
7.213	37.5099	0
7.214	56.5286	0
7.215	81.5376	0
7.216	109.557	0
7.217	140.576	0
7.218	174.586	0
7.219	202.606	0
7.22	228.616	0
7.221	252.637	0
7.222	276.647	0
7.223	300.668	0
7.224	320.679	0
7.225	339.691	0
7.226	357.712	0
7.227	375.724	0
7.228	394.736	0
7.229	411.749	0
7.23	425.771	0
7.231	437.784	0
7.232	444.797	1
7.233	447.811	0
7.234	445.824	0
7.235	438.838	0
7.236	427.852	0
7.237	408.866	0
7.238	382.881	0
7.239	348.896	0
7.24	308.911	0
7.241	265.926	0
7.242	225.942	0
7.243	187.947	0
7.244	152.963	0
7.245	121.98	0
7.246	96.9962	0
7.247	81.0029	0
7.248	69.0199	0
7.249	60.0271	0
7.25	52.0446	0
7.251	45.0623	0
7.252	40.0703	0
7.253	32.0885	0
7.254	25.0969	0
7.255	17.1056	0
7.256	9.12453	0
7.257	5.1337	0
7.258	-0.846883	0
7.259	-2.83723	0
7.26	-7.82733	0
7.261	-9.81719	0
7.262	-8.8068	0
7.263	-7.78617	0
7.264	-6.7753	0
7.265	-5.76419	0
7.266	-4.75284	0
7.267	-2.74124	0
7.268	-2.7294	0
7.269	-3.71732	0
7.27	-4.70499	0
7.271	-8.69242	0
7.272	-11.6796	0
7.273	-17.6766	0
7.274	-22.6633	0
7.275	-26.6497	0
7.276	-33.6359	0
7.277	-34.6319	0
7.278	-36.6177	0
7.279	-37.6031	0
7.28	-40.5984	0
7.281	-41.5834	0
7.282	-40.5682	0
7.283	-37.5627	0
7.284	-32.547	0
7.285	-29.541	0
7.286	-26.5348	0
