0	2044	0
0.001	2044.19	0
0.002	2044.38	0
0.003	2044.57	0
0.004	2044.75	0
0.005	2046.94	0
0.006	2052.13	0
0.007	2056.32	0
0.008	2062.51	0
0.009	2064.7	0
0.01	2066.88	0
0.011	2069.07	0
0.012	2070.26	0
0.013	2069.45	0
0.014	2069.64	0
0.015	2066.83	0
0.016	2063.02	0
0.017	2058.2	0
0.018	2055.39	0
0.019	2051.58	0
0.02	2048.77	0
0.021	2048.96	0
0.022	2048.15	0
0.023	2047.33	0
0.024	2048.52	0
0.025	2052.71	0
0.026	2057.9	0
0.027	2063.09	0
0.028	2067.28	0
0.029	2068.46	0
0.03	2070.65	0
0.031	2071.84	0
0.032	2074.03	0
0.033	2073.22	0
0.034	2071.4	0
0.035	2069.59	0
0.036	2065.78	0
0.037	2061.97	0
0.038	2059.16	0
0.039	2055.34	0
0.04	2055.53	0
0.041	2055.72	0
0.042	2053.91	0
0.043	2055.1	0
0.044	2056.28	0
0.045	2057.47	0
0.046	2061.66	0
0.047	2067.85	0
0.048	2072.04	0
0.049	2073.22	0
0.05	2076.41	0
0.051	2078.6	0
0.052	2079.79	0
0.053	2078.97	0
0.054	2075.16	0
0.055	2073.35	0
0.056	2070.54	0
0.057	2067.72	0
0.058	2063.91	0
0.059	2060.1	0
0.06	2057.29	0
0.061	2057.47	0
0.062	2056.66	0
0.063	2056.85	0
0.064	2057.03	0
0.065	2058.22	0
0.066	2064.41	0
0.067	2068.6	0
0.068	2072.78	0
0.069	2073.97	0
0.07	2076.16	0
0.071	2079.34	0
0.072	2080.53	0
0.073	2079.72	0
0.074	2076.9	0
0.075	2073.09	0
0.076	2068.28	0
0.077	2066.46	0
0.078	2063.65	0
0.079	2059.84	0
0.08	2058.02	0
0.081	2056.21	0
0.082	2055.4	0
0.083	2056.58	0
0.084	2056.77	0
0.085	2058.95	0
0.086	2064.14	0
0.087	2069.33	0
0.088	2074.51	0
0.089	2076.7	0
0.09	2079.88	0
0.091	2081.07	0
0.092	2083.25	0
0.093	2082.44	0
0.094	2081.63	0
0.095	2077.81	0
0.096	2075	0
0.097	2071.18	0
0.098	2069.37	0
0.099	2066.55	0
0.1	2064.74	0
0.101	2064.92	0
0.102	2066.11	0
0.103	2067.29	0
0.104	2068.48	0
0.105	2070.66	0
0.106	2075.85	0
0.107	2083.03	0
0.108	2087.22	0
0.109	2088.4	0
0.11	2091.59	0
0.111	2092.77	0
0.112	2093.96	0
0.113	2096.14	0
0.114	2094.32	0
0.115	2091.51	0
0.116	2089.69	0
0.117	2084.88	0
0.118	2083.06	0
0.119	2078.24	0
0.12	2076.43	0
0.121	2076.61	0
0.122	2074.79	0
0.123	2074.98	0
0.124	2075.16	0
0.125	2077.34	0
0.126	2081.53	0
0.127	2087.71	0
0.128	2091.89	0
0.129	2095.08	0
0.13	2096.26	0
0.131	2096.44	0
0.132	2097.63	0
0.133	2096.81	0
0.134	2093.99	0
0.135	2090.17	0
0.136	2086.36	0
0.137	2083.54	0
0.138	2079.72	0
0.139	2074.9	0
0.14	2074.08	0
0.141	2072.27	0
0.142	2072.45	0
0.143	2071.63	0
0.144	2071.81	0
0.145	2072.99	0
0.146	2077.17	0
0.147	2080.36	0
0.148	2084.54	0
0.149	2087.72	0
0.15	2088.9	0
0.151	2091.08	0
0.152	2093.26	0
0.153	2093.44	0
0.154	2091.62	0
0.155	2088.8	0
0.156	2085.98	0
0.157	2080.16	0
0.158	2075.34	0
0.159	2073.52	0
0.16	2072.7	0
0.161	2071.88	0
0.162	2072.06	0
0.163	2071.24	0
0.164	2071.42	0
0.165	2073.6	0
0.166	2076.78	0
0.167	2081.96	0
0.168	2087.14	0
0.169	2091.32	0
0.17	2093.5	0
0.171	2095.68	0
0.172	2096.86	0
0.173	2097.03	0
0.174	2095.21	0
0.175	2093.39	0
0.176	2090.57	0
0.177	2087.75	0
0.178	2083.93	0
0.179	2079.1	0
0.18	2076.28	0
0.181	2076.46	0
0.182	2074.64	0
0.183	2074.81	0
0.184	2074.99	0
0.185	2078.17	0
0.186	2083.35	0
0.187	2087.52	0
0.188	2092.7	0
0.189	2094.88	0
0.19	2097.05	0
0.191	2098.23	0
0.192	2099.41	0
0.193	2098.58	0
0.194	2094.76	0
0.195	2092.93	0
0.196	2093.11	0
0.197	2088.29	0
0.198	2086.46	0
0.199	2081.64	0
0.2	2078.81	0
0.201	2078.99	0
0.202	2077.16	0
0.203	2078.34	0
0.204	2078.51	0
0.205	2079.69	0
0.206	2083.86	0
0.207	2090.04	0
0.208	2094.21	0
0.209	2097.38	0
0.21	2098.56	0
0.211	2102.73	0
0.212	2104.91	0
0.213	2105.08	0
0.214	2103.25	0
0.215	2100.43	0
0.216	2097.6	0
0.217	2091.77	0
0.218	2088.95	0
0.219	2085.12	0
0.22	2083.29	0
0.221	2083.46	0
0.222	2082.64	0
0.223	2081.81	0
0.224	2081.98	0
0.225	2083.15	0
0.226	2088.32	0
0.227	2093.49	0
0.228	2097.67	0
0.229	2100.84	0
0.23	2102.01	0
0.231	2105.18	0
0.232	2105.35	0
0.233	2105.52	0
0.234	2103.69	0
0.235	2100.86	0
0.236	2097.03	0
0.237	2092.2	0
0.238	2087.37	0
0.239	2083.54	0
0.24	2080.71	0
0.241	2077.88	0
0.242	2074.05	0
0.243	2070.22	0
0.244	2066.39	0
0.245	2063.56	0
0.246	2063.73	0
0.247	2062.89	0
0.248	2065.06	0
0.249	2065.23	0
0.25	2065.4	0
0.251	2068.57	0
0.252	2069.73	0
0.253	2070.9	0
0.254	2072.07	0
0.255	2072.24	0
0.256	2073.4	0
0.257	2074.57	0
0.258	2074.74	0
0.259	2075.9	0
0.26	2076.07	0
0.261	2079.24	0
0.262	2082.4	0
0.263	2086.57	0
0.264	2095.73	0
0.265	2107.9	0
0.266	2128.07	0
0.267	2155.23	0
0.268	2188.4	0
0.269	2222.56	0
0.27	2258.73	0
0.271	2294.89	0
0.272	2329.05	0
0.273	2360.22	0
0.274	2384.38	0
0.275	2404.55	0
0.276	2422.71	0
0.277	2434.87	0
0.278	2445.04	0
0.279	2452.2	0
0.28	2459.36	0
0.281	2469.53	0
0.282	2476.69	0
0.283	2484.85	1
0.284	2490.01	0
0.285	2494.17	0
0.286	2497.34	0
0.287	2494.5	0
0.288	2486.66	0
0.289	2472.82	0
0.29	2451.98	0
0.291	2427.14	0
0.292	2394.3	0
0.293	2357.46	0
0.294	2316.62	0
0.295	2273.78	0
0.296	2235.94	0
0.297	2199.1	0
0.298	2170.26	0
0.299	2148.42	0
0.3	2133.58	0
0.301	2124.74	0
0.302	2119.9	0
0.303	2114.06	0
0.304	2111.22	0
0.305	2107.38	0
0.306	2109.53	0
0.307	2110.69	0
0.308	2112.85	0
0.309	2113.01	0
0.31	2113.16	0
0.311	2114.32	0
0.312	2112.48	0
0.313	2111.64	0
0.314	2107.79	0
0.315	2100.95	0
0.316	2099.1	0
0.317	2092.26	0
0.318	2086.42	0
0.319	2081.57	0
0.32	2077.73	0
0.321	2076.88	0
0.322	2072.04	0
0.323	2072.19	0
0.324	2070.35	0
0.325	2072.5	0
0.326	2076.65	0
0.327	2080.81	0
0.328	2083.96	0
0.329	2086.12	0
0.33	2088.27	0
0.331	2089.42	0
0.332	2090.58	0
0.333	2090.73	0
0.334	2087.88	0
0.335	2086.03	0
0.336	2083.18	0
0.337	2079.34	0
0.338	2074.49	0
0.339	2069.64	0
0.34	2065.79	0
0.341	2066.94	0
0.342	2068.09	0
0.343	2067.24	0
0.344	2067.39	0
0.345	2069.54	0
0.346	2072.69	0
0.347	2078.84	0
0.348	2080.99	0
0.349	2083.14	0
0.35	2086.29	0
0.351	2090.44	0
0.352	2090.59	0
0.353	2092.74	0
0.354	2090.88	0
0.355	2088.03	0
0.356	2086.18	0
0.357	2083.33	0
0.358	2079.48	0
0.359	2076.62	0
0.36	2073.77	0
0.361	2076.92	0
0.362	2075.06	0
0.363	2075.21	0
0.364	2075.35	0
0.365	2076.5	0
0.366	2081.65	0
0.367	2085.79	0
0.368	2090.94	0
0.369	2095.08	0
0.37	2095.23	0
0.371	2099.37	0
0.372	2102.51	0
0.373	2103.66	0
0.374	2101.8	0
0.375	2097.94	0
0.376	2095.09	0
0.377	2092.23	0
0.378	2088.37	0
0.379	2084.52	0
0.38	2082.66	0
0.381	2083.8	0
0.382	2081.94	0
0.383	2082.08	0
0.384	2082.23	0
0.385	2084.37	0
0.386	2088.51	0
0.387	2092.65	0
0.388	2096.79	0
0.389	2099.93	0
0.39	2102.07	0
0.391	2105.21	0
0.392	2106.35	0
0.393	2107.49	0
0.394	2107.63	0
0.395	2104.76	0
0.396	2102.9	0
0.397	2101.04	0
0.398	2098.18	0
0.399	2093.32	0
0.4	2093.45	0
0.401	2092.59	0
0.402	2091.73	0
0.403	2090.87	0
0.404	2092	0
0.405	2094.14	0
0.406	2099.27	0
0.407	2104.41	0
0.408	2109.55	0
0.409	2111.68	0
0.41	2112.82	0
0.411	2113.95	0
0.412	2118.09	0
0.413	2117.22	0
0.414	2116.35	0
0.415	2114.49	0
0.416	2113.62	0
0.417	2108.76	0
0.418	2105.89	0
0.419	2104.02	0
0.42	2104.15	0
0.421	2103.29	0
0.422	2103.42	0
0.423	2102.55	0
0.424	2103.68	0
0.425	2105.81	0
0.426	2111.94	0
0.427	2117.07	0
0.428	2122.21	0
0.429	2125.34	0
0.43	2128.47	0
0.431	2133.6	0
0.432	2132.72	0
0.433	2135.85	0
0.434	2134.98	0
0.435	2134.11	0
0.436	2133.24	0
0.437	2128.37	0
0.438	2123.5	0
0.439	2120.62	0
0.44	2118.75	0
0.441	2119.88	0
0.442	2119.01	0
0.443	2120.13	0
0.444	2119.26	0
0.445	2122.38	0
0.446	2127.51	0
0.447	2131.64	0
0.448	2135.76	0
0.449	2138.89	0
0.45	2142.01	0
0.451	2145.14	0
0.452	2146.26	0
0.453	2146.38	0
0.454	2145.51	0
0.455	2144.63	0
0.456	2142.75	0
0.457	2139.88	0
0.458	2136	0
0.459	2132.12	0
0.46	2132.24	0
0.461	2133.37	0
0.462	2131.49	0
0.463	2131.61	0
0.464	2130.73	0
0.465	2132.85	0
0.466	2138.97	0
0.467	2144.09	0
0.468	2149.21	0
0.469	2153.33	0
0.47	2155.45	0
0.471	2157.57	0
0.472	2160.69	0
0.473	2161.81	0
0.474	2160.93	0
0.475	2160.04	0
0.476	2158.16	0
0.477	2155.28	0
0.478	2151.4	0
0.479	2149.51	0
0.48	2148.63	0
0.481	2148.75	0
0.482	2148.86	0
0.483	2148.98	0
0.484	2149.09	0
0.485	2151.21	0
0.486	2158.32	0
0.487	2163.44	0
0.488	2168.55	0
0.489	2172.67	0
0.49	2175.78	0
0.491	2176.89	0
0.492	2180.01	0
0.493	2182.12	0
0.494	2180.23	0
0.495	2178.34	0
0.496	2175.46	0
0.497	2173.57	0
0.498	2169.68	0
0.499	2167.79	0
0.5	2165.9	0
0.501	2165.01	0
0.502	2166.12	0
0.503	2167.23	0
0.504	2167.34	0
0.505	2169.45	0
0.506	2174.56	0
0.507	2181.67	0
0.508	2185.78	0
0.509	2188.89	0
0.51	2191	0
0.511	2192.1	0
0.512	2195.21	0
0.513	2196.32	0
0.514	2195.42	0
0.515	2192.53	0
0.516	2192.64	0
0.517	2187.74	0
0.518	2184.85	0
0.519	2180.95	0
0.52	2180.06	0
0.521	2180.16	0
0.522	2179.27	0
0.523	2178.37	0
0.524	2177.48	0
0.525	2179.58	0
0.526	2184.68	0
0.527	2188.79	0
0.528	2193.89	0
0.529	2196.99	0
0.53	2199.09	0
0.531	2201.2	0
0.532	2203.3	0
0.533	2203.4	0
0.534	2201.5	0
0.535	2198.6	0
0.536	2197.7	0
0.537	2191.8	0
0.538	2187.9	0
0.539	2184	0
0.54	2182.1	0
0.541	2182.2	0
0.542	2181.3	0
0.543	2181.4	0
0.544	2179.49	0
0.545	2181.59	0
0.546	2184.69	0
0.547	2188.78	0
0.548	2190.88	0
0.549	2192.98	0
0.55	2193.07	0
0.551	2194.17	0
0.552	2193.27	0
0.553	2192.36	0
0.554	2188.46	0
0.555	2183.55	0
0.556	2180.64	0
0.557	2174.74	0
0.558	2168.83	0
0.559	2162.93	0
0.56	2159.02	0
0.561	2156.11	0
0.562	2152.2	0
0.563	2149.3	0
0.564	2147.39	0
0.565	2147.48	0
0.566	2149.57	0
0.567	2151.66	0
0.568	2154.75	0
0.569	2154.84	0
0.57	2154.93	0
0.571	2157.02	0
0.572	2156.11	0
0.573	2153.2	0
0.574	2150.29	0
0.575	2145.38	0
0.576	2141.46	0
0.577	2133.55	0
0.578	2129.64	0
0.579	2123.73	0
0.58	2120.81	0
0.581	2118.9	0
0.582	2113.99	0
0.583	2112.07	0
0.584	2110.16	0
0.585	2111.24	0
0.586	2114.33	0
0.587	2117.41	0
0.588	2118.5	0
0.589	2119.58	0
0.59	2120.66	0
0.591	2119.75	0
0.592	2121.83	0
0.593	2120.91	0
0.594	2117	0
0.595	2114.08	0
0.596	2111.16	0
0.597	2105.24	0
0.598	2100.32	0
0.599	2095.4	0
0.6	2093.48	0
0.601	2092.56	0
0.602	2090.64	0
0.603	2088.72	0
0.604	2087.8	0
0.605	2087.88	0
0.606	2091.96	0
0.607	2095.04	0
0.608	2099.11	0
0.609	2102.19	0
0.61	2103.27	0
0.611	2104.35	0
0.612	2106.42	0
0.613	2107.5	0
0.614	2105.57	0
0.615	2103.65	0
0.616	2100.73	0
0.617	2095.8	0
0.618	2090.87	0
0.619	2086.95	0
0.62	2084.02	0
0.621	2085.1	0
0.622	2083.17	0
0.623	2081.24	0
0.624	2081.32	0
0.625	2084.39	0
0.626	2089.46	0
0.627	2094.53	0
0.628	2099.6	0
0.629	2102.67	0
0.63	2104.74	0
0.631	2104.81	0
0.632	2106.88	0
0.633	2108.95	0
0.634	2108.02	0
0.635	2105.09	0
0.636	2104.16	0
0.637	2099.23	0
0.638	2094.3	0
0.639	2090.37	0
0.64	2088.43	0
0.641	2089.5	0
0.642	2088.57	0
0.643	2087.63	0
0.644	2088.7	0
0.645	2090.76	0
0.646	2095.83	0
0.647	2099.9	0
0.648	2103.96	0
0.649	2107.02	0
0.65	2110.09	0
0.651	2113.15	0
0.652	2116.22	0
0.653	2115.28	0
0.654	2113.34	0
0.655	2111.4	0
0.656	2109.47	0
0.657	2105.53	0
0.658	2101.59	0
0.659	2097.65	0
0.66	2097.71	0
0.661	2097.77	0
0.662	2095.83	0
0.663	2093.89	0
0.664	2093.95	0
0.665	2097.01	0
0.666	2102.07	0
0.667	2106.13	0
0.668	2110.18	0
0.669	2112.24	0
0.67	2116.3	0
0.671	2117.35	0
0.672	2120.41	0
0.673	2120.47	0
0.674	2119.52	0
0.675	2117.58	0
0.676	2114.63	0
0.677	2110.69	0
0.678	2106.74	0
0.679	2103.8	0
0.68	2102.85	0
0.681	2101.91	0
0.682	2098.96	0
0.683	2099.01	0
0.684	2098.06	0
0.685	2103.12	0
0.686	2106.17	0
0.687	2113.22	0
0.688	2117.27	0
0.689	2119.32	0
0.69	2123.37	0
0.691	2126.42	0
0.692	2128.47	0
0.693	2128.52	0
0.694	2127.57	0
0.695	2124.62	0
0.696	2121.67	0
0.697	2117.72	0
0.698	2113.76	0
0.699	2109.81	0
0.7	2108.86	0
0.701	2107.91	0
0.702	2106.95	0
0.703	2106	0
0.704	2105.04	0
0.705	2109.09	0
0.706	2112.13	0
0.707	2117.18	0
0.708	2121.22	0
0.709	2124.27	0
0.71	2127.31	0
0.711	2129.35	0
0.712	2130.4	0
0.713	2130.44	0
0.714	2129.48	0
0.715	2127.52	0
0.716	2125.56	0
0.717	2120.61	0
0.718	2116.65	0
0.719	2112.69	0
0.72	2112.73	0
0.721	2111.77	0
0.722	2110.81	0
0.723	2107.85	0
0.724	2107.88	0
0.725	2110.92	0
0.726	2115.96	0
0.727	2121	0
0.728	2125.04	0
0.729	2129.07	0
0.73	2131.11	0
0.731	2132.15	0
0.732	2135.18	0
0.733	2136.22	0
0.734	2135.25	0
0.735	2132.29	0
0.736	2130.32	0
0.737	2125.36	0
0.738	2121.39	0
0.739	2116.42	0
0.74	2114.46	0
0.741	2113.49	0
0.742	2112.52	0
0.743	2111.55	0
0.744	2111.59	0
0.745	2114.62	0
0.746	2117.65	0
0.747	2122.68	0
0.748	2127.71	0
0.749	2129.74	0
0.75	2133.77	0
0.751	2135.8	0
0.752	2136.83	0
0.753	2136.86	0
0.754	2134.88	0
0.755	2133.91	0
0.756	2129.94	0
0.757	2125.97	0
0.758	2121.99	0
0.759	2118.02	0
0.76	2116.05	0
0.761	2115.07	0
0.762	2113.1	0
0.763	2111.12	0
0.764	2112.15	0
0.765	2116.17	0
0.766	2119.2	0
0.767	2124.22	0
0.768	2128.24	0
0.769	2131.27	0
0.77	2134.29	0
0.771	2135.31	0
0.772	2138.33	0
0.773	2137.35	0
0.774	2136.38	0
0.775	2133.4	0
0.776	2130.42	0
0.777	2127.44	0
0.778	2122.46	0
0.779	2118.48	0
0.78	2117.5	0
0.781	2116.51	0
0.782	2115.53	0
0.783	2114.55	0
0.784	2114.57	0
0.785	2117.59	0
0.786	2120.6	0
0.787	2127.62	0
0.788	2130.64	0
0.789	2132.65	0
0.79	2134.67	0
0.791	2136.68	0
0.792	2137.7	0
0.793	2136.71	0
0.794	2137.73	0
0.795	2135.74	0
0.796	2132.75	0
0.797	2129.77	0
0.798	2124.78	0
0.799	2120.79	0
0.8	2118.8	0
0.801	2116.81	0
0.802	2116.83	0
0.803	2115.84	0
0.804	2115.85	0
0.805	2116.86	0
0.806	2121.87	0
0.807	2126.88	0
0.808	2129.89	0
0.809	2132.89	0
0.81	2135.9	0
0.811	2136.91	0
0.812	2138.92	0
0.813	2138.93	0
0.814	2137.93	0
0.815	2134.94	0
0.816	2131.95	0
0.817	2129.95	0
0.818	2124.96	0
0.819	2122.96	0
0.82	2120.97	0
0.821	2119.97	0
0.822	2118.98	0
0.823	2117.98	0
0.824	2117.98	0
0.825	2119.99	0
0.826	2124.99	0
0.827	2129.99	0
0.828	2132.99	0
0.829	2136	0
0.83	2138	0
0.831	2141	0
0.832	2141	0
0.833	2140	0
0.834	2140	0
0.835	2139	0
0.836	2137	0
0.837	2133	0
0.838	2129	0
0.839	2124.99	0
0.84	2122.99	0
0.841	2122.99	0
0.842	2120.99	0
0.843	2118.98	0
0.844	2118.98	0
0.845	2121.98	0
0.846	2126.97	0
0.847	2131.97	0
0.848	2135.96	0
0.849	2138.96	0
0.85	2140.95	0
0.851	2143.94	0
0.852	2145.94	0
0.853	2145.93	0
0.854	2145.92	0
0.855	2142.92	0
0.856	2140.91	0
0.857	2135.9	0
0.858	2131.89	0
0.859	2129.88	0
0.86	2127.87	0
0.861	2126.86	0
0.862	2124.85	0
0.863	2123.84	0
0.864	2123.83	0
0.865	2127.82	0
0.866	2131.81	0
0.867	2135.8	0
0.868	2139.79	0
0.869	2141.77	0
0.87	2144.76	0
0.871	2145.75	0
0.872	2148.73	0
0.873	2148.72	0
0.874	2147.71	0
0.875	2147.69	0
0.876	2143.68	0
0.877	2139.66	0
0.878	2135.65	0
0.879	2132.63	0
0.88	2130.61	0
0.881	2130.6	0
0.882	2128.58	0
0.883	2128.56	0
0.884	2127.54	0
0.885	2131.53	0
0.886	2135.51	0
0.887	2141.49	0
0.888	2144.47	0
0.889	2148.45	0
0.89	2151.43	0
0.891	2153.41	0
0.892	2154.39	0
0.893	2153.37	0
0.894	2153.35	0
0.895	2151.33	0
0.896	2148.3	0
0.897	2143.28	0
0.898	2137.26	0
0.899	2134.23	0
0.9	2132.21	0
0.901	2132.19	0
0.902	2130.16	0
0.903	2128.14	0
0.904	2129.11	0
0.905	2133.09	0
0.906	2136.06	0
0.907	2141.04	0
0.908	2145.01	0
0.909	2147.98	0
0.91	2148.96	0
0.911	2151.93	0
0.912	2153.9	0
0.913	2154.87	0
0.914	2153.85	0
0.915	2151.82	0
0.916	2147.79	0
0.917	2143.76	0
0.918	2139.73	0
0.919	2136.7	0
0.92	2135.67	0
0.921	2135.64	0
0.922	2134.61	0
0.923	2132.58	0
0.924	2134.54	0
0.925	2137.51	0
0.926	2141.48	0
0.927	2145.45	0
0.928	2149.41	0
0.929	2153.38	0
0.93	2154.34	0
0.931	2155.31	0
0.932	2158.28	0
0.933	2159.24	0
0.934	2157.21	0
0.935	2155.17	0
0.936	2151.13	0
0.937	2147.1	0
0.938	2142.06	0
0.939	2139.02	0
0.94	2137.99	0
0.941	2134.95	0
0.942	2133.91	0
0.943	2131.87	0
0.944	2131.83	0
0.945	2135.79	0
0.946	2138.75	0
0.947	2145.71	0
0.948	2148.67	0
0.949	2151.63	0
0.95	2154.59	0
0.951	2155.55	0
0.952	2157.51	0
0.953	2157.47	0
0.954	2156.42	0
0.955	2154.38	0
0.956	2151.34	0
0.957	2146.3	0
0.958	2139.25	0
0.959	2138.21	0
0.96	2137.16	0
0.961	2136.12	0
0.962	2135.07	0
0.963	2132.03	0
0.964	2133.98	0
0.965	2136.94	0
0.966	2140.89	0
0.967	2145.84	0
0.968	2146.8	0
0.969	2152.75	0
0.97	2154.7	0
0.971	2157.65	0
0.972	2157.6	0
0.973	2157.55	0
0.974	2155.51	0
0.975	2152.46	0
0.976	2148.41	0
0.977	2145.36	0
0.978	2139.3	0
0.979	2136.25	0
0.98	2136.2	0
0.981	2134.15	0
0.982	2133.1	0
0.983	2131.05	0
0.984	2131.99	0
0.985	2133.94	0
0.986	2137.89	0
0.987	2142.83	0
0.988	2146.78	0
0.989	2149.73	0
0.99	2151.67	0
0.991	2155.62	0
0.992	2157.56	0
0.993	2156.51	0
0.994	2155.45	0
0.995	2153.39	0
0.996	2147.34	0
0.997	2145.28	0
0.998	2139.22	0
0.999	2136.16	0
1	2136.11	0
1.001	2135.05	0
1.002	2132.99	0
1.003	2131.93	0
1.004	2131.87	0
1.005	2134.81	0
1.006	2138.75	0
1.007	2143.69	0
1.008	2146.63	0
1.009	2149.57	0
1.01	2151.51	0
1.011	2153.44	0
1.012	2154.38	0
1.013	2154.32	0
1.014	2152.26	0
1.015	2151.19	0
1.016	2147.13	0
1.017	2142.07	0
1.018	2138	0
1.019	2134.94	0
1.02	2133.87	0
1.021	2131.81	0
1.022	2129.74	0
1.023	2129.68	0
1.024	2129.61	0
1.025	2135.54	0
1.026	2141.48	0
1.027	2146.41	0
1.028	2150.34	0
1.029	2153.28	0
1.03	2157.21	0
1.031	2159.14	0
1.032	2160.07	0
1.033	2160	0
1.034	2160.93	0
1.035	2157.86	0
1.036	2154.79	0
1.037	2150.72	0
1.038	2146.65	0
1.039	2144.58	0
1.04	2143.51	0
1.041	2141.44	0
1.042	2140.36	0
1.043	2139.29	0
1.044	2139.22	0
1.045	2142.15	0
1.046	2145.07	0
1.047	2150	0
1.048	2153.92	0
1.049	2156.85	0
1.05	2160.78	0
1.051	2160.7	0
1.052	2163.63	0
1.053	2161.55	0
1.054	2159.47	0
1.055	2156.4	0
1.056	2151.32	0
1.057	2147.24	0
1.058	2143.17	0
1.059	2139.09	0
1.06	2136.01	0
1.061	2132.93	0
1.062	2130.85	0
1.063	2130.77	0
1.064	2132.7	0
1.065	2135.62	0
1.066	2140.54	0
1.067	2143.46	0
1.068	2147.38	0
1.069	2150.29	0
1.07	2153.21	0
1.071	2153.13	0
1.072	2154.05	0
1.073	2152.97	0
1.074	2151.89	0
1.075	2149.8	0
1.076	2145.72	0
1.077	2139.64	0
1.078	2134.55	0
1.079	2131.47	0
1.08	2131.38	0
1.081	2129.3	0
1.082	2128.21	0
1.083	2126.13	0
1.084	2126.04	0
1.085	2128.96	0
1.086	2132.87	0
1.087	2138.78	0
1.088	2141.7	0
1.089	2144.61	0
1.09	2147.52	0
1.091	2148.44	0
1.092	2150.35	0
1.093	2150.26	0
1.094	2149.17	0
1.095	2148.08	0
1.096	2144.99	0
1.097	2140.9	0
1.098	2135.81	0
1.099	2131.72	0
1.1	2131.63	0
1.101	2130.54	0
1.102	2129.45	0
1.103	2128.36	0
1.104	2127.26	0
1.105	2132.17	0
1.106	2136.08	0
1.107	2140.99	0
1.108	2143.89	0
1.109	2147.8	0
1.11	2150.71	0
1.111	2152.61	0
1.112	2152.52	0
1.113	2151.42	0
1.114	2149.33	0
1.115	2148.23	0
1.116	2145.14	0
1.117	2141.04	0
1.118	2135.95	0
1.119	2131.85	0
1.12	2129.75	0
1.121	2129.66	0
1.122	2128.56	0
1.123	2126.46	0
1.124	2127.36	0
1.125	2133.26	0
1.126	2136.17	0
1.127	2139.07	0
1.128	2142.97	0
1.129	2146.87	0
1.13	2149.77	0
1.131	2150.67	0
1.132	2151.57	0
1.133	2150.47	0
1.134	2148.37	0
1.135	2147.26	0
1.136	2144.16	0
1.137	2139.06	0
1.138	2133.96	0
1.139	2131.86	0
1.14	2130.75	0
1.141	2130.65	0
1.142	2129.55	0
1.143	2127.44	0
1.144	2127.34	0
1.145	2131.23	0
1.146	2135.13	0
1.147	2140.02	0
1.148	2143.92	0
1.149	2146.81	0
1.15	2148.71	0
1.151	2149.6	0
1.152	2149.5	0
1.153	2147.39	0
1.154	2146.28	0
1.155	2143.17	0
1.156	2139.07	0
1.157	2133.96	0
1.158	2128.85	0
1.159	2124.74	0
1.16	2123.63	0
1.161	2118.52	0
1.162	2114.42	0
1.163	2110.31	0
1.164	2105.2	0
1.165	2105.09	0
1.166	2103.98	0
1.167	2103.86	0
1.168	2102.75	0
1.169	2101.64	0
1.17	2101.53	0
1.171	2103.42	0
1.172	2103.31	0
1.173	2103.19	0
1.174	2105.08	0
1.175	2105.97	0
1.176	2106.86	0
1.177	2105.74	0
1.178	2104.63	0
1.179	2105.51	0
1.18	2109.4	0
1.181	2109.28	0
1.182	2112.17	0
1.183	2114.05	0
1.184	2122.94	0
1.185	2137.82	0
1.186	2155.71	0
1.187	2182.59	0
1.188	2214.47	0
1.189	2248.36	0
1.19	2285.24	0
1.191	2319.12	0
1.192	2351	0
1.193	2376.89	0
1.194	2397.77	0
1.195	2417.65	0
1.196	2430.53	0
1.197	2442.41	0
1.198	2448.29	0
1.199	2455.17	0
1.2	2464.05	0
1.201	2470.93	0
1.202	2479.81	0
1.203	2487.69	0
1.204	2494.57	1
1.205	2502.45	0
1.206	2506.33	0
1.207	2506.2	0
1.208	2499.08	0
1.209	2488.96	0
1.21	2470.84	0
1.211	2447.71	0
1.212	2417.59	0
1.213	2379.47	0
1.214	2341.34	0
1.215	2300.22	0
1.216	2262.09	0
1.217	2222.97	0
1.218	2189.84	0
1.219	2165.72	0
1.22	2150.59	0
1.221	2140.47	0
1.222	2131.34	0
1.223	2126.22	0
1.224	2122.09	0
1.225	2121.96	0
1.226	2123.84	0
1.227	2125.71	0
1.228	2127.58	0
1.229	2127.45	0
1.23	2129.33	0
1.231	2128.2	0
1.232	2126.07	0
1.233	2123.94	0
1.234	2119.81	0
1.235	2115.68	0
1.236	2111.55	0
1.237	2106.42	0
1.238	2100.29	0
1.239	2095.16	0
1.24	2092.03	0
1.241	2089.9	0
1.242	2086.77	0
1.243	2084.64	0
1.244	2084.51	0
1.245	2088.37	0
1.246	2092.24	0
1.247	2095.11	0
1.248	2097.98	0
1.249	2099.84	0
1.25	2099.71	0
1.251	2102.58	0
1.252	2102.44	0
1.253	2100.31	0
1.254	2099.18	0
1.255	2097.04	0
1.256	2091.91	0
1.257	2087.77	0
1.258	2083.64	0
1.259	2080.5	0
1.26	2079.37	0
1.261	2077.23	0
1.262	2075.09	0
1.263	2074.96	0
1.264	2076.82	0
1.265	2079.68	0
1.266	2084.55	0
1.267	2088.41	0
1.268	2091.27	0
1.269	2095.13	0
1.27	2098	0
1.271	2097.86	0
1.272	2098.72	0
1.273	2097.58	0
1.274	2097.44	0
1.275	2094.3	0
1.276	2090.16	0
1.277	2085.02	0
1.278	2081.88	0
1.279	2080.74	0
1.28	2078.6	0
1.281	2078.46	0
1.282	2076.32	0
1.283	2074.18	0
1.284	2074.04	0
1.285	2078.9	0
1.286	2082.75	0
1.287	2086.61	0
1.288	2090.47	0
1.289	2093.33	0
1.29	2097.18	0
1.291	2098.04	0
1.292	2098.9	0
1.293	2098.75	0
1.294	2097.61	0
1.295	2097.47	0
1.296	2092.32	0
1.297	2088.18	0
1.298	2084.03	0
1.299	2082.89	0
1.3	2081.74	0
1.301	2080.6	0
1.302	2080.45	0
1.303	2079.31	0
1.304	2080.16	0
1.305	2083.01	0
1.306	2086.87	0
1.307	2091.72	0
1.308	2095.57	0
1.309	2099.43	0
1.31	2103.28	0
1.311	2105.13	0
1.312	2104.98	0
1.313	2105.84	0
1.314	2104.69	0
1.315	2102.54	0
1.316	2097.39	0
1.317	2093.24	0
1.318	2089.09	0
1.319	2086.94	0
1.32	2085.79	0
1.321	2083.64	0
1.322	2082.49	0
1.323	2081.34	0
1.324	2084.19	0
1.325	2088.04	0
1.326	2092.89	0
1.327	2096.74	0
1.328	2101.59	0
1.329	2105.44	0
1.33	2107.29	0
1.331	2111.13	0
1.332	2111.98	0
1.333	2109.83	0
1.334	2106.68	0
1.335	2105.52	0
1.336	2100.37	0
1.337	2096.22	0
1.338	2093.06	0
1.339	2090.91	0
1.34	2091.76	0
1.341	2089.6	0
1.342	2087.45	0
1.343	2089.29	0
1.344	2089.14	0
1.345	2092.99	0
1.346	2096.83	0
1.347	2101.68	0
1.348	2104.52	0
1.349	2109.36	0
1.35	2113.21	0
1.351	2115.05	0
1.352	2115.9	0
1.353	2114.74	0
1.354	2114.58	0
1.355	2111.43	0
1.356	2109.27	0
1.357	2105.11	0
1.358	2100.95	0
1.359	2097.8	0
1.36	2098.64	0
1.361	2098.48	0
1.362	2096.32	0
1.363	2096.16	0
1.364	2098.01	0
1.365	2102.85	0
1.366	2106.69	0
1.367	2110.53	0
1.368	2114.37	0
1.369	2117.21	0
1.37	2121.05	0
1.371	2120.89	0
1.372	2122.73	0
1.373	2121.57	0
1.374	2121.41	0
1.375	2118.25	0
1.376	2115.09	0
1.377	2111.93	0
1.378	2107.77	0
1.379	2105.61	0
1.38	2106.44	0
1.381	2104.28	0
1.382	2102.12	0
1.383	2100.96	0
1.384	2103.8	0
1.385	2108.63	0
1.386	2112.47	0
1.387	2117.31	0
1.388	2121.15	0
1.389	2125.98	0
1.39	2129.82	0
1.391	2129.65	0
1.392	2130.49	0
1.393	2130.33	0
1.394	2128.16	0
1.395	2125	0
1.396	2123.83	0
1.397	2120.67	0
1.398	2116.51	0
1.399	2113.34	0
1.4	2114.18	0
1.401	2112.01	0
1.402	2108.84	0
1.403	2110.68	0
1.404	2112.51	0
1.405	2117.35	0
1.406	2122.18	0
1.407	2127.01	0
1.408	2131.85	0
1.409	2136.68	0
1.41	2138.52	0
1.411	2143.35	0
1.412	2144.18	0
1.413	2142.01	0
1.414	2141.85	0
1.415	2140.68	0
1.416	2134.51	0
1.417	2132.34	0
1.418	2127.17	0
1.419	2125.01	0
1.42	2122.84	0
1.421	2122.67	0
1.422	2122.5	0
1.423	2122.33	0
1.424	2123.16	0
1.425	2127.99	0
1.426	2131.82	0
1.427	2136.66	0
1.428	2141.49	0
1.429	2144.32	0
1.43	2148.15	0
1.431	2149.98	0
1.432	2150.81	0
1.433	2150.63	0
1.434	2148.46	0
1.435	2144.29	0
1.436	2142.12	0
1.437	2136.95	0
1.438	2132.78	0
1.439	2129.61	0
1.44	2126.44	0
1.441	2127.27	0
1.442	2125.09	0
1.443	2124.92	0
1.444	2126.75	0
1.445	2131.58	0
1.446	2134.41	0
1.447	2140.23	0
1.448	2142.06	0
1.449	2144.89	0
1.45	2146.71	0
1.451	2149.54	0
1.452	2150.37	0
1.453	2150.2	0
1.454	2147.02	0
1.455	2145.85	0
1.456	2140.67	0
1.457	2135.5	0
1.458	2129.33	0
1.459	2126.15	0
1.46	2124.98	0
1.461	2122.8	0
1.462	2120.63	0
1.463	2117.45	0
1.464	2118.28	0
1.465	2122.1	0
1.466	2124.93	0
1.467	2127.75	0
1.468	2129.58	0
1.469	2131.4	0
1.47	2133.23	0
1.471	2132.05	0
1.472	2129.88	0
1.473	2126.7	0
1.474	2123.52	0
1.475	2119.35	0
1.476	2113.17	0
1.477	2105.99	0
1.478	2099.82	0
1.479	2094.64	0
1.48	2091.46	0
1.481	2088.29	0
1.482	2085.11	0
1.483	2081.93	0
1.484	2081.76	0
1.485	2083.58	0
1.486	2084.4	0
1.487	2088.22	0
1.488	2090.04	0
1.489	2090.87	0
1.49	2093.69	0
1.491	2091.51	0
1.492	2090.33	0
1.493	2087.15	0
1.494	2082.98	0
1.495	2079.8	0
1.496	2073.62	0
1.497	2065.44	0
1.498	2061.26	0
1.499	2056.08	0
1.5	2053.9	0
1.501	2051.72	0
1.502	2049.54	0
1.503	2047.36	0
1.504	2047.18	0
1.505	2050	0
1.506	2052.82	0
1.507	2055.64	0
1.508	2058.46	0
1.509	2060.28	0
1.51	2061.1	0
1.511	2060.92	0
1.512	2058.74	0
1.513	2057.56	0
1.514	2054.38	0
1.515	2050.2	0
1.516	2045.02	0
1.517	2038.84	0
1.518	2033.66	0
1.519	2031.48	0
1.52	2029.3	0
1.521	2026.11	0
1.522	2023.93	0
1.523	2023.75	0
1.524	2025.57	0
1.525	2029.39	0
1.526	2033.21	0
1.527	2037.02	0
1.528	2038.84	0
1.529	2041.66	0
1.53	2041.48	0
1.531	2044.29	0
1.532	2044.11	0
1.533	2041.93	0
1.534	2040.75	0
1.535	2038.56	0
1.536	2032.38	0
1.537	2029.2	0
1.538	2025.02	0
1.539	2022.83	0
1.54	2020.65	0
1.541	2020.47	0
1.542	2018.28	0
1.543	2017.1	0
1.544	2019.92	0
1.545	2023.73	0
1.546	2027.55	0
1.547	2032.37	0
1.548	2036.18	0
1.549	2038	0
1.55	2041.81	0
1.551	2043.63	0
1.552	2043.45	0
1.553	2042.26	0
1.554	2040.08	0
1.555	2037.89	0
1.556	2032.71	0
1.557	2028.52	0
1.558	2023.34	0
1.559	2023.16	0
1.56	2021.97	0
1.561	2020.79	0
1.562	2019.6	0
1.563	2018.42	0
1.564	2020.23	0
1.565	2024.05	0
1.566	2028.86	0
1.567	2030.68	0
1.568	2035.49	0
1.569	2039.31	0
1.57	2044.12	0
1.571	2044.94	0
1.572	2044.75	0
1.573	2043.56	0
1.574	2043.38	0
1.575	2040.19	0
1.576	2036.01	0
1.577	2030.82	0
1.578	2027.64	0
1.579	2025.45	0
1.58	2024.26	0
1.581	2022.08	0
1.582	2020.89	0
1.583	2020.71	0
1.584	2021.52	0
1.585	2026.33	0
1.586	2031.15	0
1.587	2036.96	0
1.588	2039.77	0
1.589	2044.59	0
1.59	2045.4	0
1.591	2047.21	0
1.592	2046.03	0
1.593	2043.84	0
1.594	2042.65	0
1.595	2039.47	0
1.596	2036.28	0
1.597	2031.09	0
1.598	2026.91	0
1.599	2024.72	0
1.6	2023.53	0
1.601	2023.35	0
1.602	2021.16	0
1.603	2021.97	0
1.604	2023.78	0
1.605	2028.6	0
1.606	2032.41	0
1.607	2035.22	0
1.608	2041.04	0
1.609	2044.85	0
1.61	2047.66	0
1.611	2049.47	0
1.612	2048.29	0
1.613	2047.1	0
1.614	2045.91	0
1.615	2041.72	0
1.616	2038.54	0
1.617	2034.35	0
1.618	2029.16	0
1.619	2025.97	0
1.62	2024.79	0
1.621	2024.6	0
1.622	2024.41	0
1.623	2024.22	0
1.624	2025.03	0
1.625	2029.85	0
1.626	2033.66	0
1.627	2036.47	0
1.628	2040.28	0
1.629	2043.09	0
1.63	2046.91	0
1.631	2047.72	0
1.632	2046.53	0
1.633	2047.34	0
1.634	2044.15	0
1.635	2041.97	0
1.636	2035.78	0
1.637	2031.59	0
1.638	2027.4	0
1.639	2025.21	0
1.64	2023.02	0
1.641	2022.84	0
1.642	2021.65	0
1.643	2022.46	0
1.644	2024.27	0
1.645	2028.08	0
1.646	2032.89	0
1.647	2034.71	0
1.648	2038.52	0
1.649	2043.33	0
1.65	2047.14	0
1.651	2047.95	0
1.652	2047.76	0
1.653	2045.58	0
1.654	2044.39	0
1.655	2041.2	0
1.656	2036.01	0
1.657	2030.82	0
1.658	2025.63	0
1.659	2022.45	0
1.66	2021.26	0
1.661	2019.07	0
1.662	2017.88	0
1.663	2017.69	0
1.664	2020.5	0
1.665	2025.31	0
1.666	2029.13	0
1.667	2033.94	0
1.668	2035.75	0
1.669	2038.56	0
1.67	2040.37	0
1.671	2041.18	0
1.672	2041.99	0
1.673	2039.81	0
1.674	2039.62	0
1.675	2034.43	0
1.676	2029.24	0
1.677	2024.05	0
1.678	2019.86	0
1.679	2018.68	0
1.68	2018.49	0
1.681	2017.3	0
1.682	2016.11	0
1.683	2015.92	0
1.684	2017.73	0
1.685	2023.54	0
1.686	2027.36	0
1.687	2031.17	0
1.688	2035.98	0
1.689	2038.79	0
1.69	2039.6	0
1.691	2041.41	0
1.692	2043.23	0
1.693	2041.04	0
1.694	2036.85	0
1.695	2035.66	0
1.696	2030.47	0
1.697	2027.29	0
1.698	2023.1	0
1.699	2020.91	0
1.7	2018.72	0
1.701	2016.53	0
1.702	2016.34	0
1.703	2016.16	0
1.704	2017.97	0
1.705	2021.78	0
1.706	2027.59	0
1.707	2031.4	0
1.708	2033.22	0
1.709	2037.03	0
1.71	2038.84	0
1.711	2040.65	0
1.712	2040.47	0
1.713	2038.28	0
1.714	2035.09	0
1.715	2031.9	0
1.716	2027.71	0
1.717	2023.53	0
1.718	2019.34	0
1.719	2017.15	0
1.72	2015.96	0
1.721	2016.78	0
1.722	2014.59	0
1.723	2014.4	0
1.724	2016.21	0
1.725	2020.03	0
1.726	2024.84	0
1.727	2029.65	0
1.728	2031.46	0
1.729	2035.28	0
1.73	2037.09	0
1.731	2038.9	0
1.732	2037.72	0
1.733	2037.53	0
1.734	2035.34	0
1.735	2031.16	0
1.736	2025.97	0
1.737	2020.78	0
1.738	2016.59	0
1.739	2013.41	0
1.74	2013.22	0
1.741	2011.03	0
1.742	2010.85	0
1.743	2010.66	0
1.744	2013.47	0
1.745	2016.29	0
1.746	2021.1	0
1.747	2024.92	0
1.748	2026.73	0
1.749	2029.54	0
1.75	2033.36	0
1.751	2033.17	0
1.752	2033.98	0
1.753	2031.8	0
1.754	2029.61	0
1.755	2027.43	0
1.756	2022.24	0
1.757	2018.05	0
1.758	2012.87	0
1.759	2012.68	0
1.76	2011.5	0
1.761	2011.31	0
1.762	2009.13	0
1.763	2009.94	0
1.764	2012.76	0
1.765	2016.57	0
1.766	2020.39	0
1.767	2025.2	0
1.768	2029.02	0
1.769	2030.83	0
1.77	2033.65	0
1.771	2034.46	0
1.772	2034.28	0
1.773	2033.09	0
1.774	2030.91	0
1.775	2027.72	0
1.776	2021.54	0
1.777	2016.35	0
1.778	2012.17	0
1.779	2009.98	0
1.78	2008.8	0
1.781	2007.62	0
1.782	2005.43	0
1.783	2006.25	0
1.784	2009.06	0
1.785	2011.88	0
1.786	2017.7	0
1.787	2020.51	0
1.788	2026.33	0
1.789	2030.14	0
1.79	2031.96	0
1.791	2032.78	0
1.792	2032.59	0
1.793	2029.41	0
1.794	2027.23	0
1.795	2025.04	0
1.796	2018.86	0
1.797	2014.68	0
1.798	2010.5	0
1.799	2008.31	0
1.8	2006.13	0
1.801	2005.95	0
1.802	2003.77	0
1.803	2004.58	0
1.804	2007.4	0
1.805	2012.22	0
1.806	2017.04	0
1.807	2021.86	0
1.808	2023.67	0
1.809	2027.49	0
1.81	2031.31	0
1.811	2030.13	0
1.812	2029.95	0
1.813	2028.77	0
1.814	2024.58	0
1.815	2023.4	0
1.816	2018.22	0
1.817	2013.04	0
1.818	2008.86	0
1.819	2006.68	0
1.82	2006.5	0
1.821	2004.32	0
1.822	2002.14	0
1.823	2001.96	0
1.824	2005.78	0
1.825	2009.6	0
1.826	2014.42	0
1.827	2018.24	0
1.828	2021.06	0
1.829	2023.88	0
1.83	2026.7	0
1.831	2027.52	0
1.832	2026.34	0
1.833	2026.16	0
1.834	2023.98	0
1.835	2019.8	0
1.836	2016.62	0
1.837	2010.44	0
1.838	2007.26	0
1.839	2007.08	0
1.84	2004.91	0
1.841	2004.73	0
1.842	2002.55	0
1.843	2004.37	0
1.844	2007.19	0
1.845	2012.01	0
1.846	2015.84	0
1.847	2020.66	0
1.848	2023.48	0
1.849	2026.3	0
1.85	2028.13	0
1.851	2028.95	0
1.852	2027.77	0
1.853	2025.59	0
1.854	2023.42	0
1.855	2021.24	0
1.856	2016.06	0
1.857	2009.89	0
1.858	2004.71	0
1.859	2004.53	0
1.86	2002.36	0
1.861	2000.18	0
1.862	2000.01	0
1.863	2000.83	0
1.864	2004.66	0
1.865	2009.48	0
1.866	2013.3	0
1.867	2017.13	0
1.868	2020.95	0
1.869	2024.78	0
1.87	2024.6	0
1.871	2026.43	0
1.872	2025.25	0
1.873	2023.08	0
1.874	2021.91	0
1.875	2017.73	0
1.876	2014.56	0
1.877	2009.38	0
1.878	2005.21	0
1.879	2002.04	0
1.88	2001.86	0
1.881	2000.69	0
1.882	1999.52	0
1.883	1999.34	0
1.884	2003.17	0
1.885	2007	0
1.886	2011.82	0
1.887	2015.65	0
1.888	2019.48	0
1.889	2023.31	0
1.89	2024.14	0
1.891	2025.96	0
1.892	2024.79	0
1.893	2021.62	0
1.894	2020.45	0
1.895	2017.28	0
1.896	2012.11	0
1.897	2005.93	0
1.898	2001.76	0
1.899	2001.59	0
1.9	1999.42	0
1.901	1997.25	0
1.902	1997.08	0
1.903	1997.91	0
1.904	2003.74	0
1.905	2006.57	0
1.906	2012.4	0
1.907	2016.23	0
1.908	2019.06	0
1.909	2023.89	0
1.91	2025.72	0
1.911	2026.56	0
1.912	2025.39	0
1.913	2024.22	0
1.914	2022.05	0
1.915	2017.88	0
1.916	2011.71	0
1.917	2007.54	0
1.918	2002.38	0
1.919	1999.21	0
1.92	1999.04	0
1.921	1998.87	0
1.922	1998.71	0
1.923	1998.54	0
1.924	2002.37	0
1.925	2006.21	0
1.926	2010.04	0
1.927	2012.87	0
1.928	2016.71	0
1.929	2020.54	0
1.93	2021.38	0
1.931	2023.21	0
1.932	2022.05	0
1.933	2018.88	0
1.934	2016.71	0
1.935	2013.55	0
1.936	2009.38	0
1.937	2003.22	0
1.938	1999.06	0
1.939	1996.89	0
1.94	1993.73	0
1.941	1992.56	0
1.942	1991.4	0
1.943	1991.24	0
1.944	1996.07	0
1.945	1999.91	0
1.946	2004.75	0
1.947	2008.58	0
1.948	2011.42	0
1.949	2015.26	0
1.95	2016.1	0
1.951	2016.93	0
1.952	2014.77	0
1.953	2013.61	0
1.954	2011.45	0
1.955	2006.29	0
1.956	2001.13	0
1.957	1995.96	0
1.958	1990.8	0
1.959	1989.64	0
1.96	1988.48	0
1.961	1987.32	0
1.962	1987.16	0
1.963	1989	0
1.964	1993.84	0
1.965	1996.68	0
1.966	2001.52	0
1.967	2006.36	0
1.968	2008.21	0
1.969	2012.05	0
1.97	2013.89	0
1.971	2014.73	0
1.972	2013.57	0
1.973	2012.41	0
1.974	2010.26	0
1.975	2006.1	0
1.976	2002.94	0
1.977	1997.78	0
1.978	1994.63	0
1.979	1994.47	0
1.98	1992.31	0
1.981	1992.16	0
1.982	1992	0
1.983	1992.84	0
1.984	1997.69	0
1.985	2001.53	0
1.986	2006.38	0
1.987	2010.22	0
1.988	2012.07	0
1.989	2015.91	0
1.99	2019.76	0
1.991	2020.6	0
1.992	2018.45	0
1.993	2017.29	0
1.994	2016.14	0
1.995	2011.99	0
1.996	2006.83	0
1.997	2000.68	0
1.998	1996.53	0
1.999	1996.37	0
2	1993.22	0
2.001	1992.07	0
2.002	1990.92	0
2.003	1991.76	0
2.004	1996.61	0
2.005	2000.46	0
2.006	2005.31	0
2.007	2009.16	0
2.008	2012.01	0
2.009	2015.86	0
2.01	2016.71	0
2.011	2016.56	0
2.012	2014.41	0
2.013	2012.26	0
2.014	2009.11	0
2.015	2006.96	0
2.016	2000.81	0
2.017	1994.66	0
2.018	1991.51	0
2.019	1991.36	0
2.02	1989.21	0
2.021	1988.07	0
2.022	1986.92	0
2.023	1986.77	0
2.024	1990.62	0
2.025	1993.48	0
2.026	1998.33	0
2.027	2000.18	0
2.028	2003.04	0
2.029	2005.89	0
2.03	2008.74	0
2.031	2008.6	0
2.032	2005.45	0
2.033	2003.31	0
2.034	2001.16	0
2.035	1998.02	0
2.036	1991.87	0
2.037	1986.73	0
2.038	1982.58	0
2.039	1981.44	0
2.04	1981.29	0
2.041	1980.15	0
2.042	1979.01	0
2.043	1978.86	0
2.044	1981.72	0
2.045	1986.58	0
2.046	1991.44	0
2.047	1994.29	0
2.048	1997.15	0
2.049	2000.01	0
2.05	2001.87	0
2.051	2002.73	0
2.052	2001.59	0
2.053	1999.45	0
2.054	1997.31	0
2.055	1993.16	0
2.056	1988.02	0
2.057	1983.88	0
2.058	1979.75	0
2.059	1977.61	0
2.06	1976.47	0
2.061	1975.33	0
2.062	1973.19	0
2.063	1973.05	0
2.064	1978.91	0
2.065	1982.77	0
2.066	1987.64	0
2.067	1991.5	0
2.068	1995.36	0
2.069	1997.23	0
2.07	2001.09	0
2.071	2000.95	0
2.072	2000.82	0
2.073	1998.68	0
2.074	1996.54	0
2.075	1992.41	0
2.076	1987.27	0
2.077	1983.14	0
2.078	1980	0
2.079	1978.87	0
2.08	1976.74	0
2.081	1973.6	0
2.082	1973.47	0
2.083	1973.33	0
2.084	1975.2	0
2.085	1980.07	0
2.086	1983.93	0
2.087	1986.8	0
2.088	1989.67	0
2.089	1994.54	0
2.09	1997.41	0
2.091	1997.27	0
2.092	1996.14	0
2.093	1995.01	0
2.094	1992.88	0
2.095	1988.75	0
2.096	1981.62	0
2.097	1977.49	0
2.098	1972.36	0
2.099	1970.23	0
2.1	1971.1	0
2.101	1968.97	0
2.102	1968.85	0
2.103	1968.72	0
2.104	1974.59	0
2.105	1977.46	0
2.106	1981.33	0
2.107	1985.21	0
2.108	1989.08	0
2.109	1991.95	0
2.11	1992.83	0
2.111	1992.7	0
2.112	1991.57	0
2.113	1989.45	0
2.114	1986.32	0
2.115	1978.2	0
2.116	1971.07	0
2.117	1962.95	0
2.118	1954.82	0
2.119	1948.7	0
2.12	1942.57	0
2.121	1935.45	0
2.122	1929.33	0
2.123	1926.2	0
2.124	1925.08	0
2.125	1927.96	0
2.126	1931.84	0
2.127	1935.72	0
2.128	1940.59	0
2.129	1946.47	0
2.13	1951.35	0
2.131	1956.23	0
2.132	1956.11	0
2.133	1957.99	0
2.134	1955.87	0
2.135	1953.75	0
2.136	1950.63	0
2.137	1950.51	0
2.138	1958.39	0
2.139	1974.27	0
2.14	2000.15	0
2.141	2029.04	0
2.142	2060.92	0
2.143	2095.8	0
2.144	2130.68	0
2.145	2164.57	0
2.146	2194.45	0
2.147	2220.33	0
2.148	2242.22	0
2.149	2261.1	0
2.15	2278.98	0
2.151	2293.87	0
2.152	2308.75	0
2.153	2322.64	0
2.154	2336.52	0
2.155	2350.41	0
2.156	2361.3	0
2.157	2370.18	0
2.158	2381.07	0
2.159	2388.96	1
2.16	2395.84	0
2.161	2398.73	0
2.162	2395.62	0
2.163	2386.51	0
2.164	2369.39	0
2.165	2345.28	0
2.166	2314.17	0
2.167	2276.06	0
2.168	2236.95	0
2.169	2197.84	0
2.17	2155.73	0
2.171	2115.62	0
2.172	2078.51	0
2.173	2048.4	0
2.174	2026.29	0
2.175	2008.19	0
2.176	1993.08	0
2.177	1981.97	0
2.178	1973.86	0
2.179	1969.75	0
2.18	1965.65	0
2.181	1961.54	0
2.182	1955.43	0
2.183	1954.33	0
2.184	1956.22	0
2.185	1957.12	0
2.186	1960.01	0
2.187	1960.91	0
2.188	1962.8	0
2.189	1964.7	0
2.19	1963.59	0
2.191	1961.49	0
2.192	1959.38	0
2.193	1954.28	0
2.194	1951.18	0
2.195	1944.08	0
2.196	1937.97	0
2.197	1932.87	0
2.198	1927.77	0
2.199	1923.67	0
2.2	1921.57	0
2.201	1919.47	0
2.202	1917.37	0
2.203	1917.27	0
2.204	1920.17	0
2.205	1923.07	0
2.206	1927.97	0
2.207	1931.87	0
2.208	1934.77	0
2.209	1935.67	0
2.21	1939.57	0
2.211	1939.47	0
2.212	1937.38	0
2.213	1936.28	0
2.214	1935.18	0
2.215	1929.09	0
2.216	1924.99	0
2.217	1918.89	0
2.218	1915.8	0
2.219	1914.7	0
2.22	1912.61	0
2.221	1911.51	0
2.222	1911.42	0
2.223	1912.32	0
2.224	1917.23	0
2.225	1921.14	0
2.226	1926.04	0
2.227	1929.95	0
2.228	1933.86	0
2.229	1937.77	0
2.23	1939.67	0
2.231	1940.58	0
2.232	1939.49	0
2.233	1937.4	0
2.234	1935.31	0
2.235	1929.22	0
2.236	1924.13	0
2.237	1920.04	0
2.238	1916.95	0
2.239	1915.86	0
2.24	1914.77	0
2.241	1912.68	0
2.242	1911.59	0
2.243	1912.51	0
2.244	1917.42	0
2.245	1920.33	0
2.246	1925.24	0
2.247	1929.16	0
2.248	1933.07	0
2.249	1937.99	0
2.25	1938.9	0
2.251	1939.81	0
2.252	1938.73	0
2.253	1936.64	0
2.254	1935.56	0
2.255	1929.48	0
2.256	1925.39	0
2.257	1921.31	0
2.258	1917.22	0
2.259	1917.14	0
2.26	1915.06	0
2.261	1914.98	0
2.262	1914.9	0
2.263	1915.81	0
2.264	1922.73	0
2.265	1925.65	0
2.266	1929.57	0
2.267	1935.49	0
2.268	1939.41	0
2.269	1944.33	0
2.27	1945.25	0
2.271	1945.17	0
2.272	1944.09	0
2.273	1944.02	0
2.274	1941.94	0
2.275	1936.86	0
2.276	1932.78	0
2.277	1926.71	0
2.278	1924.63	0
2.279	1922.55	0
2.28	1921.48	0
2.281	1920.4	0
2.282	1920.32	0
2.283	1921.25	0
2.284	1926.17	0
2.285	1931.1	0
2.286	1935.03	0
2.287	1938.95	0
2.288	1944.88	0
2.289	1946.81	0
2.29	1949.73	0
2.291	1950.66	0
2.292	1949.59	0
2.293	1948.52	0
2.294	1948.44	0
2.295	1943.37	0
2.296	1938.3	0
2.297	1932.23	0
2.298	1931.16	0
2.299	1931.09	0
2.3	1929.02	0
2.301	1927.95	0
2.302	1928.88	0
2.303	1930.82	0
2.304	1934.75	0
2.305	1939.68	0
2.306	1944.61	0
2.307	1949.54	0
2.308	1954.48	0
2.309	1960.41	0
2.31	1960.35	0
2.311	1960.28	0
2.312	1960.21	0
2.313	1958.15	0
2.314	1956.08	0
2.315	1951.02	0
2.316	1944.95	0
2.317	1940.89	0
2.318	1938.83	0
2.319	1937.76	0
2.32	1936.7	0
2.321	1935.64	0
2.322	1935.58	0
2.323	1937.51	0
2.324	1941.45	0
2.325	1945.39	0
2.326	1950.33	0
2.327	1954.27	0
2.328	1959.21	0
2.329	1964.15	0
2.33	1967.09	0
2.331	1967.03	0
2.332	1967.97	0
2.333	1964.91	0
2.334	1961.86	0
2.335	1959.8	0
2.336	1954.74	0
2.337	1950.68	0
2.338	1947.63	0
2.339	1945.57	0
2.34	1946.51	0
2.341	1945.46	0
2.342	1945.4	0
2.343	1947.35	0
2.344	1952.29	0
2.345	1958.24	0
2.346	1964.18	0
2.347	1969.13	0
2.348	1973.08	0
2.349	1977.02	0
2.35	1979.97	0
2.351	1979.92	0
2.352	1980.87	0
2.353	1979.81	0
2.354	1977.76	0
2.355	1973.71	0
2.356	1969.66	0
2.357	1965.61	0
2.358	1964.56	0
2.359	1963.51	0
2.36	1963.46	0
2.361	1962.41	0
2.362	1963.36	0
2.363	1965.32	0
2.364	1969.27	0
2.365	1976.22	0
2.366	1981.17	0
2.367	1986.13	0
2.368	1990.08	0
2.369	1994.03	0
2.37	1996.99	0
2.371	1998.94	0
2.372	1997.9	0
2.373	1996.85	0
2.374	1993.81	0
2.375	1991.76	0
2.376	1986.72	0
2.377	1980.68	0
2.378	1979.63	0
2.379	1979.59	0
2.38	1978.55	0
2.381	1978.51	0
2.382	1977.46	0
2.383	1980.42	0
2.384	1985.38	0
2.385	1990.34	0
2.386	1994.3	0
2.387	1999.26	0
2.388	2004.22	0
2.389	2007.18	0
2.39	2009.14	0
2.391	2008.1	0
2.392	2008.06	0
2.393	2009.03	0
2.394	2005.99	0
2.395	1999.95	0
2.396	1994.92	0
2.397	1990.88	0
2.398	1987.84	0
2.399	1984.81	0
2.4	1984.77	0
2.401	1982.74	0
2.402	1983.7	0
2.403	1986.67	0
2.404	1991.63	0
2.405	1996.6	0
2.406	2000.57	0
2.407	2004.53	0
2.408	2008.5	0
2.409	2011.47	0
2.41	2013.44	0
2.411	2013.4	0
2.412	2011.37	0
2.413	2008.34	0
2.414	2004.31	0
2.415	2000.28	0
2.416	1995.25	0
2.417	1990.22	0
2.418	1986.19	0
2.419	1984.16	0
2.42	1980.13	0
2.421	1978.11	0
2.422	1976.08	0
2.423	1978.05	0
2.424	1980.02	0
2.425	1984	0
2.426	1987.97	0
2.427	1988.95	0
2.428	1992.92	0
2.429	1994.89	0
2.43	1994.87	0
2.431	1993.84	0
2.432	1990.82	0
2.433	1986.8	0
2.434	1983.77	0
2.435	1976.75	0
2.436	1969.73	0
2.437	1962.7	0
2.438	1957.68	0
2.439	1955.66	0
2.44	1952.64	0
2.441	1951.62	0
2.442	1947.6	0
2.443	1947.58	0
2.444	1949.56	0
2.445	1950.54	0
2.446	1954.52	0
2.447	1957.5	0
2.448	1959.48	0
2.449	1960.46	0
2.45	1960.44	0
2.451	1957.43	0
2.452	1955.41	0
2.453	1952.39	0
2.454	1948.38	0
2.455	1941.36	0
2.456	1934.34	0
2.457	1929.33	0
2.458	1925.31	0
2.459	1922.3	0
2.46	1919.28	0
2.461	1917.27	0
2.462	1915.26	0
2.463	1917.24	0
2.464	1918.23	0
2.465	1921.22	0
2.466	1924.21	0
2.467	1927.19	0
2.468	1930.18	0
2.469	1932.17	0
2.47	1931.16	0
2.471	1931.15	0
2.472	1929.14	0
2.473	1927.13	0
2.474	1923.12	0
2.475	1917.11	0
2.476	1911.1	0
2.477	1905.09	0
2.478	1901.09	0
2.479	1899.08	0
2.48	1897.07	0
2.481	1896.06	0
2.482	1896.06	0
2.483	1898.05	0
2.484	1902.05	0
2.485	1905.04	0
2.486	1910.03	0
2.487	1913.03	0
2.488	1917.03	0
2.489	1919.02	0
2.49	1921.02	0
2.491	1921.01	0
2.492	1920.01	0
2.493	1919.01	0
2.494	1915.01	0
2.495	1910	0
2.496	1905	0
2.497	1900	0
2.498	1898	0
2.499	1896	0
2.5	1894	0
2.501	1893	0
2.502	1892	0
2.503	1894	0
2.504	1897	0
2.505	1903	0
2.506	1909.01	0
2.507	1912.01	0
2.508	1916.01	0
2.509	1920.01	0
2.51	1922.02	0
2.511	1923.02	0
2.512	1921.03	0
2.513	1921.03	0
2.514	1917.03	0
2.515	1913.04	0
2.516	1909.05	0
2.517	1905.05	0
2.518	1902.06	0
2.519	1901.06	0
2.52	1899.07	0
2.521	1898.08	0
2.522	1898.09	0
2.523	1901.09	0
2.524	1906.1	0
2.525	1910.11	0
2.526	1915.12	0
2.527	1919.13	0
2.528	1924.14	0
2.529	1927.15	0
2.53	1930.16	0
2.531	1930.17	0
2.532	1928.18	0
2.533	1927.19	0
2.534	1923.21	0
2.535	1918.22	0
2.536	1911.23	0
2.537	1908.24	0
2.538	1906.26	0
2.539	1903.27	0
2.54	1904.28	0
2.541	1902.3	0
2.542	1901.31	0
2.543	1904.33	0
2.544	1908.34	0
2.545	1913.36	0
2.546	1916.38	0
2.547	1923.39	0
2.548	1928.41	0
2.549	1932.43	0
2.55	1933.44	0
2.551	1933.46	0
2.552	1934.48	0
2.553	1933.5	0
2.554	1930.52	0
2.555	1925.54	0
2.556	1919.56	0
2.557	1915.58	0
2.558	1913.6	0
2.559	1911.62	0
2.56	1911.64	0
2.561	1909.66	0
2.562	1910.68	0
2.563	1913.7	0
2.564	1917.73	0
2.565	1922.75	0
2.566	1927.77	0
2.567	1931.8	0
2.568	1935.82	0
2.569	1939.84	0
2.57	1941.87	0
2.571	1941.89	0
2.572	1940.92	0
2.573	1939.95	0
2.574	1936.97	0
2.575	1932	0
2.576	1927.02	0
2.577	1922.05	0
2.578	1920.08	0
2.579	1917.11	0
2.58	1916.13	0
2.581	1912.16	0
2.582	1914.19	0
2.583	1916.22	0
2.584	1919.25	0
2.585	1925.28	0
2.586	1931.31	0
2.587	1936.34	0
2.588	1941.37	0
2.589	1944.4	0
2.59	1945.44	0
2.591	1944.47	0
2.592	1944.5	0
2.593	1941.53	0
2.594	1940.57	0
2.595	1935.6	0
2.596	1929.63	0
2.597	1923.67	0
2.598	1921.7	0
2.599	1919.74	0
2.6	1918.77	0
2.601	1918.81	0
2.602	1918.84	0
2.603	1919.88	0
2.604	1925.92	0
2.605	1929.95	0
2.606	1932.99	0
2.607	1939.03	0
2.608	1944.06	0
2.609	1947.1	0
2.61	1948.14	0
2.611	1949.18	0
2.612	1947.22	0
2.613	1946.26	0
2.614	1942.3	0
2.615	1938.34	0
2.616	1932.38	0
2.617	1928.42	0
2.618	1926.46	0
2.619	1924.51	0
2.62	1924.55	0
2.621	1922.59	0
2.622	1920.63	0
2.623	1922.68	0
2.624	1925.72	0
2.625	1929.76	0
2.626	1934.81	0
2.627	1939.85	0
2.628	1945.9	0
2.629	1948.94	0
2.63	1950.99	0
2.631	1951.03	0
2.632	1949.08	0
2.633	1948.13	0
2.634	1946.17	0
2.635	1941.22	0
2.636	1936.27	0
2.637	1931.32	0
2.638	1927.36	0
2.639	1927.41	0
2.64	1926.46	0
2.641	1924.51	0
2.642	1925.56	0
2.643	1927.61	0
2.644	1932.66	0
2.645	1937.71	0
2.646	1941.76	0
2.647	1945.81	0
2.648	1950.87	0
2.649	1952.92	0
2.65	1954.97	0
2.651	1955.02	0
2.652	1953.08	0
2.653	1953.13	0
2.654	1948.18	0
2.655	1945.24	0
2.656	1940.29	0
2.657	1935.35	0
2.658	1933.4	0
2.659	1931.46	0
2.66	1929.51	0
2.661	1927.57	0
2.662	1927.63	0
2.663	1930.68	0
2.664	1934.74	0
2.665	1939.8	0
2.666	1944.86	0
2.667	1949.91	0
2.668	1953.97	0
2.669	1958.03	0
2.67	1960.09	0
2.671	1959.15	0
2.672	1958.21	0
2.673	1957.27	0
2.674	1953.33	0
2.675	1949.39	0
2.676	1942.45	0
2.677	1937.51	0
2.678	1933.58	0
2.679	1932.64	0
2.68	1931.7	0
2.681	1930.76	0
2.682	1930.83	0
2.683	1933.89	0
2.684	1937.95	0
2.685	1943.02	0
2.686	1947.08	0
2.687	1954.15	0
2.688	1958.21	0
2.689	1961.28	0
2.69	1962.35	0
2.691	1961.41	0
2.692	1960.48	0
2.693	1959.54	0
2.694	1956.61	0
2.695	1951.68	0
2.696	1944.75	0
2.697	1940.82	0
2.698	1938.88	0
2.699	1938.95	0
2.7	1937.02	0
2.701	1935.09	0
2.702	1935.16	0
2.703	1937.23	0
2.704	1942.3	0
2.705	1947.37	0
2.706	1952.44	0
2.707	1957.52	0
2.708	1961.59	0
2.709	1966.66	0
2.71	1967.73	0
2.711	1967.81	0
2.712	1966.88	0
2.713	1964.95	0
2.714	1964.03	0
2.715	1958.1	0
2.716	1953.17	0
2.717	1947.25	0
2.718	1945.32	0
2.719	1944.4	0
2.72	1943.48	0
2.721	1942.55	0
2.722	1942.63	0
2.723	1944.71	0
2.724	1949.78	0
2.725	1953.86	0
2.726	1957.94	0
2.727	1963.02	0
2.728	1968.09	0
2.729	1971.17	0
2.73	1972.25	0
2.731	1972.33	0
2.732	1971.41	0
2.733	1968.49	0
2.734	1965.57	0
2.735	1961.65	0
2.736	1956.73	0
2.737	1950.81	0
2.738	1947.9	0
2.739	1947.98	0
2.74	1947.06	0
2.741	1946.14	0
2.742	1946.22	0
2.743	1950.31	0
2.744	1953.39	0
2.745	1958.48	0
2.746	1962.56	0
2.747	1966.64	0
2.748	1970.73	0
2.749	1973.81	0
2.75	1975.9	0
2.751	1974.99	0
2.752	1974.07	0
2.753	1974.16	0
2.754	1970.24	0
2.755	1965.33	0
2.756	1957.42	0
2.757	1953.51	0
2.758	1952.59	0
2.759	1950.68	0
2.76	1948.77	0
2.761	1947.86	0
2.762	1947.95	0
2.763	1952.04	0
2.764	1955.13	0
2.765	1959.22	0
2.766	1965.31	0
2.767	1969.4	0
2.768	1974.49	0
2.769	1977.58	0
2.77	1978.67	0
2.771	1978.77	0
2.772	1976.86	0
2.773	1975.95	0
2.774	1972.04	0
2.775	1967.14	0
2.776	1961.23	0
2.777	1956.32	0
2.778	1953.42	0
2.779	1949.51	0
2.78	1949.61	0
2.781	1948.7	0
2.782	1947.8	0
2.783	1951.89	0
2.784	1955.99	0
2.785	1962.09	0
2.786	1966.18	0
2.787	1970.28	0
2.788	1977.38	0
2.789	1978.47	0
2.79	1980.57	0
2.791	1979.67	0
2.792	1977.77	0
2.793	1978.87	0
2.794	1973.97	0
2.795	1969.07	0
2.796	1962.17	0
2.797	1956.27	0
2.798	1954.37	0
2.799	1954.47	0
2.8	1952.57	0
2.801	1950.67	0
2.802	1949.77	0
2.803	1952.87	0
2.804	1955.97	0
2.805	1961.08	0
2.806	1965.18	0
2.807	1969.28	0
2.808	1975.38	0
2.809	1979.49	0
2.81	1980.59	0
2.811	1980.7	0
2.812	1979.8	0
2.813	1977.91	0
2.814	1973.01	0
2.815	1968.12	0
2.816	1961.22	0
2.817	1956.33	0
2.818	1955.43	0
2.819	1952.54	0
2.82	1951.65	0
2.821	1949.75	0
2.822	1950.86	0
2.823	1953.97	0
2.824	1959.08	0
2.825	1964.19	0
2.826	1970.29	0
2.827	1974.4	0
2.828	1979.51	0
2.829	1981.62	0
2.83	1982.73	0
2.831	1982.84	0
2.832	1980.95	0
2.833	1980.06	0
2.834	1977.17	0
2.835	1973.28	0
2.836	1968.39	0
2.837	1963.51	0
2.838	1961.62	0
2.839	1958.73	0
2.84	1957.84	0
2.841	1955.96	0
2.842	1957.07	0
2.843	1961.18	0
2.844	1963.3	0
2.845	1968.41	0
2.846	1971.52	0
2.847	1977.64	0
2.848	1980.75	0
2.849	1983.87	0
2.85	1983.98	0
2.851	1984.1	0
2.852	1984.22	0
2.853	1984.33	0
2.854	1980.45	0
2.855	1975.57	0
2.856	1970.68	0
2.857	1964.8	0
2.858	1961.92	0
2.859	1962.04	0
2.86	1960.15	0
2.861	1959.27	0
2.862	1958.39	0
2.863	1962.51	0
2.864	1966.63	0
2.865	1971.75	0
2.866	1975.87	0
2.867	1980.99	0
2.868	1986.11	0
2.869	1988.23	0
2.87	1990.35	0
2.871	1989.47	0
2.872	1988.59	0
2.873	1988.72	0
2.874	1983.84	0
2.875	1978.96	0
2.876	1974.08	0
2.877	1969.2	0
2.878	1967.33	0
2.879	1966.45	0
2.88	1965.57	0
2.881	1963.7	0
2.882	1964.82	0
2.883	1966.95	0
2.884	1972.07	0
2.885	1976.2	0
2.886	1980.32	0
2.887	1984.45	0
2.888	1989.57	0
2.889	1990.7	0
2.89	1992.83	0
2.891	1991.95	0
2.892	1992.08	0
2.893	1989.21	0
2.894	1986.33	0
2.895	1981.46	0
2.896	1975.59	0
2.897	1971.72	0
2.898	1968.85	0
2.899	1967.97	0
2.9	1968.1	0
2.901	1966.23	0
2.902	1968.36	0
2.903	1970.49	0
2.904	1973.62	0
2.905	1979.75	0
2.906	1983.88	0
2.907	1988.01	0
2.908	1993.14	0
2.909	1995.27	0
2.91	1996.41	0
2.911	1996.54	0
2.912	1995.67	0
2.913	1993.8	0
2.914	1991.93	0
2.915	1987.07	0
2.916	1980.2	0
2.917	1975.33	0
2.918	1974.47	0
2.919	1971.6	0
2.92	1969.74	0
2.921	1967.87	0
2.922	1967	0
2.923	1970.14	0
2.924	1972.27	0
2.925	1978.41	0
2.926	1983.54	0
2.927	1988.68	0
2.928	1993.82	0
2.929	1997.95	0
2.93	1998.09	0
2.931	1998.23	0
2.932	1998.36	0
2.933	1994.5	0
2.934	1991.64	0
2.935	1987.77	0
2.936	1981.91	0
2.937	1978.05	0
2.938	1976.19	0
2.939	1975.33	0
2.94	1973.47	0
2.941	1972.61	0
2.942	1974.75	0
2.943	1976.88	0
2.944	1982.02	0
2.945	1986.16	0
2.946	1990.31	0
2.947	1993.45	0
2.948	1998.59	0
2.949	2000.73	0
2.95	2001.87	0
2.951	2000.01	0
2.952	2000.15	0
2.953	1999.29	0
2.954	1996.44	0
2.955	1992.58	0
2.956	1987.72	0
2.957	1983.86	0
2.958	1980.01	0
2.959	1978.15	0
2.96	1979.29	0
2.961	1976.44	0
2.962	1976.58	0
2.963	1979.73	0
2.964	1984.87	0
2.965	1990.02	0
2.966	1994.16	0
2.967	1999.31	0
2.968	2004.45	0
2.969	2005.6	0
2.97	2006.74	0
2.971	2005.89	0
2.972	2005.04	0
2.973	2003.18	0
2.974	1999.33	0
2.975	1993.48	0
2.976	1987.62	0
2.977	1982.77	0
2.978	1979.92	0
2.979	1978.07	0
2.98	1976.21	0
2.981	1975.36	0
2.982	1976.51	0
2.983	1979.66	0
2.984	1982.81	0
2.985	1987.96	0
2.986	1992.11	0
2.987	1996.26	0
2.988	2000.41	0
2.989	2004.56	0
2.99	2005.71	0
2.991	2005.86	0
2.992	2005.01	0
2.993	2003.16	0
2.994	2001.31	0
2.995	1997.46	0
2.996	1990.61	0
2.997	1986.76	0
2.998	1984.92	0
2.999	1982.07	0
3	1981.22	0
3.001	1980.37	0
3.002	1982.53	0
3.003	1985.68	0
3.004	1992.83	0
3.005	1997.99	0
3.006	2004.14	0
3.007	2010.29	0
3.008	2016.45	0
3.009	2017.6	0
3.01	2020.76	0
3.011	2019.91	0
3.012	2020.07	0
3.013	2019.22	0
3.014	2014.38	0
3.015	2008.53	0
3.016	2003.69	0
3.017	1999.84	0
3.018	1998	0
3.019	1998.16	0
3.02	1998.31	0
3.021	1995.47	0
3.022	1996.63	0
3.023	1999.78	0
3.024	2003.94	0
3.025	2008.1	0
3.026	2012.26	0
3.027	2017.41	0
3.028	2021.57	0
3.029	2023.73	0
3.03	2024.89	0
3.031	2025.05	0
3.032	2023.21	0
3.033	2020.36	0
3.034	2017.52	0
3.035	2011.68	0
3.036	2005.84	0
3.037	2001	0
3.038	1999.16	0
3.039	1997.32	0
3.04	1997.48	0
3.041	1995.64	0
3.042	1994.8	0
3.043	1998.96	0
3.044	2001.13	0
3.045	2006.29	0
3.046	2009.45	0
3.047	2013.61	0
3.048	2019.77	0
3.049	2019.93	0
3.05	2020.1	0
3.051	2020.26	0
3.052	2018.42	0
3.053	2016.58	0
3.054	2010.75	0
3.055	2004.91	0
3.056	1999.07	0
3.057	1995.24	0
3.058	1992.4	0
3.059	1991.56	0
3.06	1989.73	0
3.061	1989.89	0
3.062	1992.06	0
3.063	1993.22	0
3.064	1999.38	0
3.065	2002.55	0
3.066	2006.71	0
3.067	2012.88	0
3.068	2018.05	0
3.069	2020.21	0
3.07	2022.38	0
3.071	2021.54	0
3.072	2020.71	0
3.073	2019.87	0
3.074	2017.04	0
3.075	2010.21	0
3.076	2004.37	0
3.077	2001.54	0
3.078	1999.71	0
3.079	1995.87	0
3.08	1995.04	0
3.081	1994.21	0
3.082	1995.38	0
3.083	1997.54	0
3.084	2000.71	0
3.085	2005.88	0
3.086	2011.05	0
3.087	2015.22	0
3.088	2020.39	0
3.089	2022.56	0
3.09	2023.72	0
3.091	2024.89	0
3.092	2026.06	0
3.093	2024.23	0
3.094	2020.4	0
3.095	2014.57	0
3.096	2009.74	0
3.097	2005.91	0
3.098	2002.08	0
3.099	2002.25	0
3.1	2001.42	0
3.101	1999.59	0
3.102	1999.76	0
3.103	2002.93	0
3.104	2007.11	0
3.105	2012.28	0
3.106	2016.45	0
3.107	2021.62	0
3.108	2026.79	0
3.109	2027.96	0
3.11	2029.14	0
3.111	2027.31	0
3.112	2028.48	0
3.113	2026.65	0
3.114	2022.82	0
3.115	2017	0
3.116	2011.17	0
3.117	2007.34	0
3.118	2006.52	0
3.119	2004.69	0
3.12	2002.86	0
3.121	2001.04	0
3.122	2003.21	0
3.123	2006.38	0
3.124	2011.56	0
3.125	2015.73	0
3.126	2019.91	0
3.127	2024.08	0
3.128	2028.25	0
3.129	2032.43	0
3.13	2033.6	0
3.131	2031.78	0
3.132	2030.95	0
3.133	2030.13	0
3.134	2024.3	0
3.135	2020.48	0
3.136	2015.66	0
3.137	2011.83	0
3.138	2009.01	0
3.139	2007.18	0
3.14	2005.36	0
3.141	2003.53	0
3.142	2004.71	0
3.143	2005.89	0
3.144	2009.06	0
3.145	2011.24	0
3.146	2013.42	0
3.147	2014.59	0
3.148	2013.77	0
3.149	2010.95	0
3.15	2006.13	0
3.151	2001.3	0
3.152	1995.48	0
3.153	1989.66	0
3.154	1982.84	0
3.155	1978.01	0
3.156	1971.19	0
3.157	1968.37	0
3.158	1967.55	0
3.159	1968.73	0
3.16	1969.91	0
3.161	1971.08	0
3.162	1976.26	0
3.163	1982.44	0
3.164	1987.62	0
3.165	1994.8	0
3.166	2001.98	0
3.167	2014.16	0
3.168	2031.34	0
3.169	2053.52	0
3.17	2080.7	0
3.171	2110.88	0
3.172	2143.06	0
3.173	2175.24	0
3.174	2204.42	0
3.175	2227.6	0
3.176	2247.78	0
3.177	2266.96	0
3.178	2283.14	0
3.179	2300.32	0
3.18	2314.5	0
3.181	2326.68	0
3.182	2342.86	0
3.183	2361.04	0
3.184	2382.22	0
3.185	2401.4	0
3.186	2422.58	0
3.187	2441.77	0
3.188	2457.95	1
3.189	2468.13	0
3.19	2475.31	0
3.191	2476.49	0
3.192	2472.67	0
3.193	2455.86	0
3.194	2429.04	0
3.195	2394.22	0
3.196	2351.4	0
3.197	2306.58	0
3.198	2260.77	0
3.199	2212.95	0
3.2	2171.13	0
3.201	2132.31	0
3.202	2100.5	0
3.203	2078.68	0
3.204	2064.86	0
3.205	2056.04	0
3.206	2052.23	0
3.207	2052.41	0
3.208	2052.59	0
3.209	2051.78	0
3.21	2049.96	0
3.211	2046.14	0
3.212	2042.33	0
3.213	2036.51	0
3.214	2031.7	0
3.215	2023.88	0
3.216	2017.06	0
3.217	2011.25	0
3.218	2007.43	0
3.219	2001.62	0
3.22	1997.8	0
3.221	1993.98	0
3.222	1994.17	0
3.223	1994.35	0
3.224	1995.54	0
3.225	1998.72	0
3.226	2002.91	0
3.227	2006.09	0
3.228	2009.28	0
3.229	2010.46	0
3.23	2009.65	0
3.231	2008.83	0
3.232	2008.02	0
3.233	2003.2	0
3.234	1999.39	0
3.235	1992.57	0
3.236	1987.76	0
3.237	1982.94	0
3.238	1979.13	0
3.239	1977.31	0
3.24	1975.5	0
3.241	1975.68	0
3.242	1975.87	0
3.243	1978.05	0
3.244	1982.24	0
3.245	1986.43	0
3.246	1990.61	0
3.247	1995.8	0
3.248	2000.98	0
3.249	2003.17	0
3.25	2004.36	0
3.251	2003.54	0
3.252	2003.73	0
3.253	2001.92	0
3.254	1997.1	0
3.255	1993.29	0
3.256	1988.47	0
3.257	1985.66	0
3.258	1982.85	0
3.259	1981.03	0
3.26	1979.22	0
3.261	1980.41	0
3.262	1982.59	0
3.263	1986.78	0
3.264	1989.97	0
3.265	1994.16	0
3.266	1999.34	0
3.267	2004.53	0
3.268	2009.72	0
3.269	2011.9	0
3.27	2013.09	0
3.271	2012.28	0
3.272	2011.46	0
3.273	2008.65	0
3.274	2003.84	0
3.275	2000.03	0
3.276	1996.21	0
3.277	1993.4	0
3.278	1991.59	0
3.279	1990.78	0
3.28	1990.96	0
3.281	1991.15	0
3.282	1992.34	0
3.283	1995.53	0
3.284	1999.71	0
3.285	2003.9	0
3.286	2008.09	0
3.287	2016.28	0
3.288	2019.47	0
3.289	2025.65	0
3.29	2026.84	0
3.291	2027.03	0
3.292	2026.22	0
3.293	2024.4	0
3.294	2019.59	0
3.295	2013.78	0
3.296	2009.97	0
3.297	2006.16	0
3.298	2005.34	0
3.299	2005.53	0
3.3	2003.72	0
3.301	2003.91	0
3.302	2006.1	0
3.303	2009.29	0
3.304	2012.47	0
3.305	2018.66	0
3.306	2023.85	0
3.307	2030.04	0
3.308	2034.23	0
3.309	2036.41	0
3.31	2037.6	0
3.311	2037.79	0
3.312	2035.98	0
3.313	2035.17	0
3.314	2031.36	0
3.315	2024.54	0
3.316	2020.73	0
3.317	2016.92	0
3.318	2015.11	0
3.319	2014.3	0
3.32	2014.49	0
3.321	2014.68	0
3.322	2015.86	0
3.323	2018.05	0
3.324	2023.24	0
3.325	2027.43	0
3.326	2032.62	0
3.327	2038.81	0
3.328	2042.99	0
3.329	2046.18	0
3.33	2047.37	0
3.331	2047.56	0
3.332	2045.75	0
3.333	2045.94	0
3.334	2042.13	0
3.335	2037.31	0
3.336	2033.5	0
3.337	2031.69	0
3.338	2029.88	0
3.339	2029.07	0
3.34	2027.26	0
3.341	2025.45	0
3.342	2027.63	0
3.343	2029.82	0
3.344	2036.01	0
3.345	2042.2	0
3.346	2047.39	0
3.347	2054.58	0
3.348	2058.76	0
3.349	2061.95	0
3.35	2064.14	0
3.351	2063.33	0
3.352	2063.52	0
3.353	2060.71	0
3.354	2057.89	0
3.355	2052.08	0
3.356	2047.27	0
3.357	2044.46	0
3.358	2044.65	0
3.359	2041.84	0
3.36	2040.02	0
3.361	2040.21	0
3.362	2041.4	0
3.363	2046.59	0
3.364	2050.78	0
3.365	2055.97	0
3.366	2061.15	0
3.367	2068.34	0
3.368	2071.53	0
3.369	2073.72	0
3.37	2074.91	0
3.371	2076.09	0
3.372	2076.28	0
3.373	2074.47	0
3.374	2071.66	0
3.375	2064.85	0
3.376	2061.03	0
3.377	2059.22	0
3.378	2056.41	0
3.379	2056.6	0
3.38	2056.79	0
3.381	2056.97	0
3.382	2059.16	0
3.383	2063.35	0
3.384	2066.54	0
3.385	2071.72	0
3.386	2076.91	0
3.387	2082.1	0
3.388	2087.29	0
3.389	2090.47	0
3.39	2091.66	0
3.391	2092.85	0
3.392	2093.04	0
3.393	2091.22	0
3.394	2088.41	0
3.395	2083.6	0
3.396	2078.78	0
3.397	2076.97	0
3.398	2074.16	0
3.399	2073.35	0
3.4	2073.53	0
3.401	2073.72	0
3.402	2075.91	0
3.403	2081.09	0
3.404	2086.28	0
3.405	2091.47	0
3.406	2095.65	0
3.407	2101.84	0
3.408	2106.03	0
3.409	2110.21	0
3.41	2110.4	0
3.411	2110.59	0
3.412	2110.77	0
3.413	2107.96	0
3.414	2105.15	0
3.415	2100.33	0
3.416	2097.52	0
3.417	2094.71	0
3.418	2093.89	0
3.419	2093.08	0
3.42	2092.26	0
3.421	2092.45	0
3.422	2095.64	0
3.423	2099.82	0
3.424	2104.01	0
3.425	2109.19	0
3.426	2113.38	0
3.427	2119.56	0
3.428	2123.75	0
3.429	2125.94	0
3.43	2126.12	0
3.431	2125.31	0
3.432	2126.49	0
3.433	2123.68	0
3.434	2120.86	0
3.435	2116.05	0
3.436	2111.23	0
3.437	2109.42	0
3.438	2105.6	0
3.439	2105.79	0
3.44	2103.97	0
3.441	2103.16	0
3.442	2104.34	0
3.443	2106.52	0
3.444	2111.71	0
3.445	2114.89	0
3.446	2120.08	0
3.447	2124.26	0
3.448	2128.45	0
3.449	2129.63	0
3.45	2129.81	0
3.451	2129	0
3.452	2128.18	0
3.453	2125.37	0
3.454	2119.55	0
3.455	2111.73	0
3.456	2105.92	0
3.457	2103.1	0
3.458	2100.28	0
3.459	2097.47	0
3.46	2095.65	0
3.461	2092.83	0
3.462	2092.02	0
3.463	2094.2	0
3.464	2097.38	0
3.465	2099.56	0
3.466	2102.75	0
3.467	2106.93	0
3.468	2108.11	0
3.469	2111.29	0
3.47	2109.48	0
3.471	2107.66	0
3.472	2104.84	0
3.473	2101.02	0
3.474	2095.21	0
3.475	2087.39	0
3.476	2080.57	0
3.477	2075.75	0
3.478	2071.93	0
3.479	2068.11	0
3.48	2065.3	0
3.481	2060.48	0
3.482	2062.66	0
3.483	2063.84	0
3.484	2067.02	0
3.485	2069.2	0
3.486	2073.38	0
3.487	2076.56	0
3.488	2078.74	0
3.489	2079.92	0
3.49	2079.1	0
3.491	2077.28	0
3.492	2074.46	0
3.493	2071.64	0
3.494	2065.82	0
3.495	2060	0
3.496	2053.18	0
3.497	2050.36	0
3.498	2045.54	0
3.499	2042.72	0
3.5	2039.9	0
3.501	2038.08	0
3.502	2039.26	0
3.503	2042.44	0
3.504	2044.62	0
3.505	2048.8	0
3.506	2052.98	0
3.507	2058.15	0
3.508	2060.33	0
3.509	2061.51	0
3.51	2061.69	0
3.511	2060.87	0
3.512	2060.04	0
3.513	2056.22	0
3.514	2051.4	0
3.515	2045.58	0
3.516	2040.76	0
3.517	2038.93	0
3.518	2035.11	0
3.519	2033.29	0
3.52	2031.46	0
3.521	2030.64	0
3.522	2032.82	0
3.523	2034.99	0
3.524	2039.17	0
3.525	2043.35	0
3.526	2047.52	0
3.527	2052.7	0
3.528	2056.88	0
3.529	2058.05	0
3.53	2058.23	0
3.531	2059.4	0
3.532	2059.58	0
3.533	2055.75	0
3.534	2052.93	0
3.535	2048.1	0
3.536	2043.28	0
3.537	2041.45	0
3.538	2038.63	0
3.539	2036.8	0
3.54	2035.98	0
3.541	2035.15	0
3.542	2039.33	0
3.543	2042.5	0
3.544	2046.67	0
3.545	2049.85	0
3.546	2054.02	0
3.547	2059.2	0
3.548	2062.37	0
3.549	2064.54	0
3.55	2066.71	0
3.551	2064.89	0
3.552	2065.06	0
3.553	2062.23	0
3.554	2058.41	0
3.555	2052.58	0
3.556	2048.75	0
3.557	2045.92	0
3.558	2044.09	0
3.559	2044.27	0
3.56	2042.44	0
3.561	2041.61	0
3.562	2044.78	0
3.563	2046.95	0
3.564	2050.12	0
3.565	2055.29	0
3.566	2059.46	0
3.567	2066.63	0
3.568	2068.81	0
3.569	2070.98	0
3.57	2071.15	0
3.571	2071.32	0
3.572	2072.49	0
3.573	2069.66	0
3.574	2066.82	0
3.575	2060.99	0
3.576	2056.16	0
3.577	2054.33	0
3.578	2052.5	0
3.579	2050.67	0
3.58	2049.84	0
3.581	2049.01	0
3.582	2051.17	0
3.583	2055.34	0
3.584	2059.51	0
3.585	2062.68	0
3.586	2067.85	0
3.587	2074.01	0
3.588	2078.18	0
3.589	2080.35	0
3.59	2079.52	0
3.591	2080.68	0
3.592	2081.85	0
3.593	2080.01	0
3.594	2076.18	0
3.595	2069.35	0
3.596	2064.51	0
3.597	2062.68	0
3.598	2059.84	0
3.599	2060.01	0
3.6	2059.18	0
3.601	2058.34	0
3.602	2060.51	0
3.603	2062.67	0
3.604	2067.83	0
3.605	2072	0
3.606	2077.16	0
3.607	2083.33	0
3.608	2084.49	0
3.609	2087.65	0
3.61	2086.82	0
3.611	2087.98	0
3.612	2088.15	0
3.613	2085.31	0
3.614	2082.47	0
3.615	2076.63	0
3.616	2071.8	0
3.617	2069.96	0
3.618	2067.12	0
3.619	2065.28	0
3.62	2063.44	0
3.621	2064.61	0
3.622	2067.77	0
3.623	2069.93	0
3.624	2075.09	0
3.625	2079.25	0
3.626	2083.41	0
3.627	2088.57	0
3.628	2091.73	0
3.629	2094.89	0
3.63	2094.05	0
3.631	2095.21	0
3.632	2096.37	0
3.633	2093.53	0
3.634	2089.69	0
3.635	2083.85	0
3.636	2081.01	0
3.637	2078.16	0
3.638	2075.32	0
3.639	2074.48	0
3.64	2074.64	0
3.641	2073.8	0
3.642	2074.95	0
3.643	2077.11	0
3.644	2080.27	0
3.645	2083.43	0
3.646	2089.58	0
3.647	2094.74	0
3.648	2097.9	0
3.649	2101.05	0
3.65	2100.21	0
3.651	2100.36	0
3.652	2102.52	0
3.653	2099.68	0
3.654	2096.83	0
3.655	2089.99	0
3.656	2085.14	0
3.657	2083.29	0
3.658	2079.45	0
3.659	2078.6	0
3.66	2077.76	0
3.661	2076.91	0
3.662	2080.06	0
3.663	2082.22	0
3.664	2086.37	0
3.665	2089.52	0
3.666	2094.68	0
3.667	2098.83	0
3.668	2102.98	0
3.669	2105.13	0
3.67	2106.29	0
3.671	2106.44	0
3.672	2107.59	0
3.673	2103.74	0
3.674	2100.89	0
3.675	2095.04	0
3.676	2090.19	0
3.677	2088.34	0
3.678	2086.49	0
3.679	2086.64	0
3.68	2084.79	0
3.681	2084.94	0
3.682	2086.09	0
3.683	2089.24	0
3.684	2092.39	0
3.685	2095.54	0
3.686	2100.69	0
3.687	2106.84	0
3.688	2108.98	0
3.689	2111.13	0
3.69	2112.28	0
3.691	2112.43	0
3.692	2113.57	0
3.693	2111.72	0
3.694	2107.87	0
3.695	2102.01	0
3.696	2098.16	0
3.697	2095.31	0
3.698	2093.45	0
3.699	2091.6	0
3.7	2089.74	0
3.701	2089.89	0
3.702	2092.03	0
3.703	2094.18	0
3.704	2098.32	0
3.705	2101.47	0
3.706	2106.61	0
3.707	2111.75	0
3.708	2115.9	0
3.709	2118.04	0
3.71	2119.18	0
3.711	2118.33	0
3.712	2119.47	0
3.713	2117.61	0
3.714	2112.75	0
3.715	2107.9	0
3.716	2102.04	0
3.717	2101.18	0
3.718	2098.32	0
3.719	2096.46	0
3.72	2094.6	0
3.721	2093.74	0
3.722	2096.88	0
3.723	2098.02	0
3.724	2100.16	0
3.725	2104.3	0
3.726	2110.44	0
3.727	2116.58	0
3.728	2119.72	0
3.729	2122.86	0
3.73	2123	0
3.731	2122.13	0
3.732	2123.27	0
3.733	2120.41	0
3.734	2116.55	0
3.735	2110.68	0
3.736	2106.82	0
3.737	2103.96	0
3.738	2101.09	0
3.739	2099.23	0
3.74	2098.37	0
3.741	2096.5	0
3.742	2098.64	0
3.743	2101.77	0
3.744	2105.91	0
3.745	2109.04	0
3.746	2113.18	0
3.747	2117.31	0
3.748	2121.44	0
3.749	2123.58	0
3.75	2123.71	0
3.751	2124.84	0
3.752	2123.98	0
3.753	2122.11	0
3.754	2117.24	0
3.755	2111.37	0
3.756	2107.51	0
3.757	2106.64	0
3.758	2102.77	0
3.759	2101.9	0
3.76	2101.03	0
3.761	2101.16	0
3.762	2103.29	0
3.763	2106.42	0
3.764	2110.55	0
3.765	2114.68	0
3.766	2117.81	0
3.767	2125.94	0
3.768	2128.07	0
3.769	2130.2	0
3.77	2130.33	0
3.771	2129.45	0
3.772	2131.58	0
3.773	2127.71	0
3.774	2124.84	0
3.775	2118.96	0
3.776	2115.09	0
3.777	2114.22	0
3.778	2111.34	0
3.779	2110.47	0
3.78	2108.59	0
3.781	2108.72	0
3.782	2110.84	0
3.783	2112.97	0
3.784	2116.09	0
3.785	2120.22	0
3.786	2123.34	0
3.787	2130.47	0
3.788	2133.59	0
3.789	2133.71	0
3.79	2133.84	0
3.791	2132.96	0
3.792	2133.08	0
3.793	2132.2	0
3.794	2130.33	0
3.795	2125.45	0
3.796	2118.57	0
3.797	2116.69	0
3.798	2114.81	0
3.799	2114.93	0
3.8	2113.05	0
3.801	2112.17	0
3.802	2112.29	0
3.803	2114.41	0
3.804	2119.53	0
3.805	2122.65	0
3.806	2128.77	0
3.807	2132.89	0
3.808	2138	0
3.809	2139.12	0
3.81	2140.24	0
3.811	2139.36	0
3.812	2140.47	0
3.813	2136.59	0
3.814	2133.71	0
3.815	2129.82	0
3.816	2124.94	0
3.817	2123.05	0
3.818	2120.17	0
3.819	2118.28	0
3.82	2117.4	0
3.821	2115.51	0
3.822	2117.63	0
3.823	2119.74	0
3.824	2122.86	0
3.825	2126.97	0
3.826	2131.08	0
3.827	2136.19	0
3.828	2139.31	0
3.829	2140.42	0
3.83	2142.53	0
3.831	2141.64	0
3.832	2142.75	0
3.833	2139.86	0
3.834	2137.98	0
3.835	2133.09	0
3.836	2127.2	0
3.837	2125.31	0
3.838	2123.42	0
3.839	2121.52	0
3.84	2119.63	0
3.841	2119.74	0
3.842	2121.85	0
3.843	2122.96	0
3.844	2127.07	0
3.845	2131.17	0
3.846	2136.28	0
3.847	2141.39	0
3.848	2144.5	0
3.849	2145.6	0
3.85	2145.71	0
3.851	2147.81	0
3.852	2147.92	0
3.853	2144.02	0
3.854	2141.13	0
3.855	2136.23	0
3.856	2132.34	0
3.857	2129.44	0
3.858	2126.55	0
3.859	2124.65	0
3.86	2122.75	0
3.861	2121.86	0
3.862	2122.96	0
3.863	2125.06	0
3.864	2128.16	0
3.865	2132.26	0
3.866	2135.37	0
3.867	2140.47	0
3.868	2142.57	0
3.869	2143.67	0
3.87	2143.77	0
3.871	2144.87	0
3.872	2146.97	0
3.873	2143.07	0
3.874	2141.17	0
3.875	2137.26	0
3.876	2134.36	0
3.877	2131.46	0
3.878	2129.56	0
3.879	2125.66	0
3.88	2124.75	0
3.881	2124.85	0
3.882	2125.95	0
3.883	2127.04	0
3.884	2129.14	0
3.885	2133.23	0
3.886	2138.33	0
3.887	2144.42	0
3.888	2146.52	0
3.889	2147.61	0
3.89	2148.71	0
3.891	2149.8	0
3.892	2150.89	0
3.893	2146.99	0
3.894	2143.08	0
3.895	2139.17	0
3.896	2135.26	0
3.897	2132.36	0
3.898	2128.45	0
3.899	2125.54	0
3.9	2123.63	0
3.901	2121.72	0
3.902	2124.81	0
3.903	2125.9	0
3.904	2128.99	0
3.905	2133.08	0
3.906	2139.17	0
3.907	2143.26	0
3.908	2147.35	0
3.909	2149.44	0
3.91	2150.52	0
3.911	2150.61	0
3.912	2149.7	0
3.913	2148.78	0
3.914	2145.87	0
3.915	2141.96	0
3.916	2137.04	0
3.917	2135.13	0
3.918	2130.21	0
3.919	2128.3	0
3.92	2126.38	0
3.921	2127.47	0
3.922	2129.55	0
3.923	2130.64	0
3.924	2132.72	0
3.925	2137.8	0
3.926	2141.89	0
3.927	2146.97	0
3.928	2151.05	0
3.929	2153.13	0
3.93	2153.21	0
3.931	2155.29	0
3.932	2156.38	0
3.933	2156.46	0
3.934	2152.54	0
3.935	2147.62	0
3.936	2142.7	0
3.937	2138.77	0
3.938	2137.85	0
3.939	2134.93	0
3.94	2133.01	0
3.941	2132.09	0
3.942	2133.17	0
3.943	2134.24	0
3.944	2137.32	0
3.945	2141.4	0
3.946	2147.47	0
3.947	2151.55	0
3.948	2154.63	0
3.949	2156.7	0
3.95	2156.78	0
3.951	2157.85	0
3.952	2157.92	0
3.953	2157	0
3.954	2154.07	0
3.955	2148.15	0
3.956	2144.22	0
3.957	2142.29	0
3.958	2138.36	0
3.959	2136.44	0
3.96	2135.51	0
3.961	2134.58	0
3.962	2135.65	0
3.963	2136.72	0
3.964	2137.79	0
3.965	2142.86	0
3.966	2148.93	0
3.967	2153	0
3.968	2157.07	0
3.969	2159.14	0
3.97	2159.21	0
3.971	2160.28	0
3.972	2160.34	0
3.973	2159.41	0
3.974	2155.48	0
3.975	2150.54	0
3.976	2146.61	0
3.977	2143.68	0
3.978	2140.74	0
3.979	2137.81	0
3.98	2136.87	0
3.981	2135.94	0
3.982	2137	0
3.983	2139.07	0
3.984	2141.13	0
3.985	2145.19	0
3.986	2150.26	0
3.987	2154.32	0
3.988	2158.38	0
3.989	2159.44	0
3.99	2161.51	0
3.991	2161.57	0
3.992	2163.63	0
3.993	2161.69	0
3.994	2158.75	0
3.995	2153.81	0
3.996	2150.87	0
3.997	2146.93	0
3.998	2143.99	0
3.999	2141.05	0
4	2139.11	0
4.001	2139.16	0
4.002	2139.22	0
4.003	2140.28	0
4.004	2141.34	0
4.005	2145.39	0
4.006	2150.45	0
4.007	2153.51	0
4.008	2157.56	0
4.009	2158.62	0
4.01	2159.67	0
4.011	2160.73	0
4.012	2159.78	0
4.013	2159.83	0
4.014	2155.89	0
4.015	2151.94	0
4.016	2147.99	0
4.017	2144.05	0
4.018	2142.1	0
4.019	2140.15	0
4.02	2139.2	0
4.021	2138.25	0
4.022	2140.3	0
4.023	2141.36	0
4.024	2144.41	0
4.025	2148.46	0
4.026	2155.51	0
4.027	2161.55	0
4.028	2165.6	0
4.029	2166.65	0
4.03	2168.7	0
4.031	2170.75	0
4.032	2170.8	0
4.033	2169.84	0
4.034	2165.89	0
4.035	2161.94	0
4.036	2157.98	0
4.037	2155.03	0
4.038	2154.07	0
4.039	2151.12	0
4.04	2150.16	0
4.041	2151.21	0
4.042	2151.25	0
4.043	2152.3	0
4.044	2154.34	0
4.045	2159.38	0
4.046	2163.42	0
4.047	2166.47	0
4.048	2171.51	0
4.049	2172.55	0
4.05	2173.59	0
4.051	2175.63	0
4.052	2175.67	0
4.053	2174.71	0
4.054	2169.75	0
4.055	2165.79	0
4.056	2159.83	0
4.057	2157.87	0
4.058	2153.91	0
4.059	2150.95	0
4.06	2148.99	0
4.061	2147.02	0
4.062	2147.06	0
4.063	2147.1	0
4.064	2149.13	0
4.065	2152.17	0
4.066	2157.21	0
4.067	2161.24	0
4.068	2163.28	0
4.069	2165.31	0
4.07	2166.34	0
4.071	2168.38	0
4.072	2168.41	0
4.073	2167.45	0
4.074	2162.48	0
4.075	2158.51	0
4.076	2154.54	0
4.077	2150.58	0
4.078	2148.61	0
4.079	2144.64	0
4.08	2143.67	0
4.081	2143.7	0
4.082	2143.73	0
4.083	2147.76	0
4.084	2149.79	0
4.085	2152.82	0
4.086	2156.85	0
4.087	2160.87	0
4.088	2163.9	0
4.089	2163.93	0
4.09	2165.96	0
4.091	2166.98	0
4.092	2168.01	0
4.093	2166.04	0
4.094	2164.06	0
4.095	2159.09	0
4.096	2156.11	0
4.097	2152.14	0
4.098	2150.16	0
4.099	2147.19	0
4.1	2146.21	0
4.101	2145.23	0
4.102	2146.26	0
4.103	2147.28	0
4.104	2150.3	0
4.105	2153.33	0
4.106	2158.35	0
4.107	2162.37	0
4.108	2165.39	0
4.109	2167.41	0
4.11	2167.43	0
4.111	2168.45	0
4.112	2169.47	0
4.113	2167.49	0
4.114	2165.51	0
4.115	2161.53	0
4.116	2158.54	0
4.117	2154.56	0
4.118	2151.58	0
4.119	2149.6	0
4.12	2147.61	0
4.121	2147.63	0
4.122	2144.65	0
4.123	2147.66	0
4.124	2149.68	0
4.125	2151.69	0
4.126	2156.71	0
4.127	2161.72	0
4.128	2164.73	0
4.129	2166.75	0
4.13	2166.76	0
4.131	2167.77	0
4.132	2169.79	0
4.133	2168.8	0
4.134	2165.81	0
4.135	2160.82	0
4.136	2157.83	0
4.137	2152.84	0
4.138	2151.85	0
4.139	2148.86	0
4.14	2148.87	0
4.141	2147.88	0
4.142	2147.89	0
4.143	2148.9	0
4.144	2150.91	0
4.145	2153.92	0
4.146	2159.92	0
4.147	2162.93	0
4.148	2166.94	0
4.149	2168.94	0
4.15	2169.95	0
4.151	2170.96	0
4.152	2171.96	0
4.153	2170.97	0
4.154	2167.97	0
4.155	2162.98	0
4.156	2159.98	0
4.157	2155.98	0
4.158	2152.99	0
4.159	2150.99	0
4.16	2148.99	0
4.161	2148.99	0
4.162	2148	0
4.163	2148	0
4.164	2150	0
4.165	2153	0
4.166	2156	0
4.167	2160	0
4.168	2161	0
4.169	2161	0
4.17	2159	0
4.171	2157	0
4.172	2152.99	0
4.173	2145.99	0
4.174	2136.99	0
4.175	2128.99	0
4.176	2121.98	0
4.177	2115.98	0
4.178	2111.98	0
4.179	2109.97	0
4.18	2108.97	0
4.181	2108.96	0
4.182	2111.96	0
4.183	2115.95	0
4.184	2120.95	0
4.185	2127.94	0
4.186	2137.93	0
4.187	2144.93	0
4.188	2152.92	0
4.189	2156.91	0
4.19	2161.9	0
4.191	2168.89	0
4.192	2178.89	0
4.193	2191.88	0
4.194	2207.87	0
4.195	2230.86	0
4.196	2258.85	0
4.197	2288.84	0
4.198	2319.83	0
4.199	2349.81	0
4.2	2377.8	0
4.201	2404.79	0
4.202	2426.78	0
4.203	2449.77	0
4.204	2469.75	0
4.205	2486.74	0
4.206	2502.73	0
4.207	2519.71	0
4.208	2533.7	0
4.209	2546.68	0
4.21	2557.67	0
4.211	2566.65	1
4.212	2572.64	0
4.213	2572.62	0
4.214	2567.6	0
4.215	2554.59	0
4.216	2537.57	0
4.217	2515.55	0
4.218	2487.53	0
4.219	2453.51	0
4.22	2415.5	0
4.221	2374.48	0
4.222	2334.46	0
4.223	2295.44	0
4.224	2261.42	0
4.225	2233.4	0
4.226	2214.38	0
4.227	2202.35	0
4.228	2196.33	0
4.229	2190.31	0
4.23	2185.29	0
4.231	2182.27	0
4.232	2179.24	0
4.233	2175.22	0
4.234	2170.2	0
4.235	2164.17	0
4.236	2157.15	0
4.237	2152.12	0
4.238	2145.1	0
4.239	2141.07	0
4.24	2136.05	0
4.241	2132.02	0
4.242	2130.99	0
4.243	2129.97	0
4.244	2128.94	0
4.245	2131.91	0
4.246	2134.88	0
4.247	2137.86	0
4.248	2139.83	0
4.249	2139.8	0
4.25	2138.77	0
4.251	2138.74	0
4.252	2138.71	0
4.253	2135.68	0
4.254	2132.65	0
4.255	2128.62	0
4.256	2124.59	0
4.257	2120.55	0
4.258	2116.52	0
4.259	2113.49	0
4.26	2110.46	0
4.261	2108.42	0
4.262	2106.39	0
4.263	2107.36	0
4.264	2108.32	0
4.265	2111.29	0
4.266	2116.25	0
4.267	2120.22	0
4.268	2124.18	0
4.269	2125.15	0
4.27	2128.11	0
4.271	2129.07	0
4.272	2130.04	0
4.273	2129	0
4.274	2125.96	0
4.275	2121.92	0
4.276	2116.88	0
4.277	2114.85	0
4.278	2112.81	0
4.279	2109.77	0
4.28	2106.73	0
4.281	2107.69	0
4.282	2107.65	0
4.283	2106.61	0
4.284	2108.56	0
4.285	2111.52	0
4.286	2117.48	0
4.287	2122.44	0
4.288	2125.4	0
4.289	2126.35	0
4.29	2127.31	0
4.291	2128.27	0
4.292	2131.22	0
4.293	2131.18	0
4.294	2128.13	0
4.295	2125.09	0
4.296	2122.04	0
4.297	2119	0
4.298	2114.95	0
4.299	2112.91	0
4.3	2110.86	0
4.301	2110.81	0
4.302	2110.76	0
4.303	2111.72	0
4.304	2113.67	0
4.305	2117.62	0
4.306	2123.57	0
4.307	2128.52	0
4.308	2132.47	0
4.309	2133.42	0
4.31	2132.37	0
4.311	2135.32	0
4.312	2137.27	0
4.313	2136.22	0
4.314	2133.17	0
4.315	2129.12	0
4.316	2126.06	0
4.317	2122.01	0
4.318	2119.96	0
4.319	2118.91	0
4.32	2116.85	0
4.321	2114.8	0
4.322	2114.74	0
4.323	2116.69	0
4.324	2119.63	0
4.325	2123.58	0
4.326	2129.52	0
4.327	2133.47	0
4.328	2137.41	0
4.329	2139.35	0
4.33	2140.3	0
4.331	2141.24	0
4.332	2143.18	0
4.333	2142.13	0
4.334	2139.07	0
4.335	2136.01	0
4.336	2132.95	0
4.337	2129.89	0
4.338	2126.83	0
4.339	2124.77	0
4.34	2122.71	0
4.341	2122.65	0
4.342	2122.59	0
4.343	2123.53	0
4.344	2125.47	0
4.345	2129.4	0
4.346	2134.34	0
4.347	2139.28	0
4.348	2144.22	0
4.349	2146.15	0
4.35	2149.09	0
4.351	2151.02	0
4.352	2150.96	0
4.353	2151.9	0
4.354	2148.83	0
4.355	2144.76	0
4.356	2141.7	0
4.357	2136.63	0
4.358	2133.57	0
4.359	2131.5	0
4.36	2128.43	0
4.361	2130.37	0
4.362	2130.3	0
4.363	2132.23	0
4.364	2134.16	0
4.365	2138.09	0
4.366	2144.02	0
4.367	2147.95	0
4.368	2152.88	0
4.369	2153.81	0
4.37	2155.74	0
4.371	2157.67	0
4.372	2159.6	0
4.373	2158.53	0
4.374	2156.46	0
4.375	2153.39	0
4.376	2151.32	0
4.377	2147.24	0
4.378	2145.17	0
4.379	2142.1	0
4.38	2141.02	0
4.381	2140.95	0
4.382	2140.87	0
4.383	2141.8	0
4.384	2142.73	0
4.385	2147.65	0
4.386	2152.57	0
4.387	2158.5	0
4.388	2161.42	0
4.389	2164.35	0
4.39	2164.27	0
4.391	2166.19	0
4.392	2168.11	0
4.393	2166.04	0
4.394	2162.96	0
4.395	2158.88	0
4.396	2156.8	0
4.397	2153.72	0
4.398	2151.64	0
4.399	2149.56	0
4.4	2148.48	0
4.401	2149.4	0
4.402	2149.32	0
4.403	2150.24	0
4.404	2152.16	0
4.405	2157.08	0
4.406	2163	0
4.407	2166.91	0
4.408	2171.83	0
4.409	2174.75	0
4.41	2175.66	0
4.411	2178.58	0
4.412	2179.5	0
4.413	2179.41	0
4.414	2176.33	0
4.415	2173.24	0
4.416	2172.16	0
4.417	2170.07	0
4.418	2167.99	0
4.419	2164.9	0
4.42	2164.81	0
4.421	2165.73	0
4.422	2164.64	0
4.423	2167.55	0
4.424	2169.46	0
4.425	2174.38	0
4.426	2180.29	0
4.427	2185.2	0
4.428	2189.11	0
4.429	2191.02	0
4.43	2193.93	0
4.431	2196.84	0
4.432	2196.75	0
4.433	2195.66	0
4.434	2192.57	0
4.435	2189.48	0
4.436	2187.39	0
4.437	2184.3	0
4.438	2182.2	0
4.439	2179.11	0
4.44	2177.02	0
4.441	2176.93	0
4.442	2177.83	0
4.443	2178.74	0
4.444	2180.64	0
4.445	2184.55	0
4.446	2189.46	0
4.447	2194.36	0
4.448	2199.27	0
4.449	2201.17	0
4.45	2202.07	0
4.451	2202.98	0
4.452	2203.88	0
4.453	2204.78	0
4.454	2200.69	0
4.455	2197.59	0
4.456	2194.49	0
4.457	2190.4	0
4.458	2188.3	0
4.459	2185.2	0
4.46	2184.1	0
4.461	2184	0
4.462	2183.9	0
4.463	2184.8	0
4.464	2184.7	0
4.465	2187.6	0
4.466	2192.5	0
4.467	2195.4	0
4.468	2197.3	0
4.469	2198.2	0
4.47	2200.09	0
4.471	2199.99	0
4.472	2198.89	0
4.473	2196.79	0
4.474	2191.68	0
4.475	2187.58	0
4.476	2182.48	0
4.477	2177.37	0
4.478	2172.27	0
4.479	2168.16	0
4.48	2165.06	0
4.481	2161.95	0
4.482	2160.85	0
4.483	2158.74	0
4.484	2158.64	0
4.485	2160.53	0
4.486	2164.42	0
4.487	2165.32	0
4.488	2166.21	0
4.489	2166.1	0
4.49	2165	0
4.491	2163.89	0
4.492	2162.78	0
4.493	2159.67	0
4.494	2151.56	0
4.495	2147.45	0
4.496	2141.34	0
4.497	2137.23	0
4.498	2133.12	0
4.499	2129.01	0
4.5	2124.9	0
4.501	2121.79	0
4.502	2117.68	0
4.503	2115.57	0
4.504	2117.46	0
4.505	2117.34	0
4.506	2119.23	0
4.507	2123.12	0
4.508	2124.01	0
4.509	2122.89	0
4.51	2120.78	0
4.511	2121.67	0
4.512	2119.55	0
4.513	2118.44	0
4.514	2112.32	0
4.515	2107.21	0
4.516	2102.09	0
4.517	2098.98	0
4.518	2093.86	0
4.519	2089.75	0
4.52	2086.63	0
4.521	2083.51	0
4.522	2081.4	0
4.523	2081.28	0
4.524	2081.16	0
4.525	2085.04	0
4.526	2088.93	0
4.527	2092.81	0
4.528	2094.69	0
4.529	2094.57	0
4.53	2093.45	0
4.531	2095.33	0
4.532	2093.21	0
4.533	2092.09	0
4.534	2087.97	0
4.535	2082.85	0
4.536	2078.73	0
4.537	2075.61	0
4.538	2073.49	0
4.539	2069.37	0
4.54	2066.24	0
4.541	2065.12	0
4.542	2063	0
4.543	2063.88	0
4.544	2064.75	0
4.545	2068.63	0
4.546	2073.51	0
4.547	2078.38	0
4.548	2080.26	0
4.549	2083.14	0
4.55	2084.01	0
4.551	2084.89	0
4.552	2086.76	0
4.553	2084.64	0
4.554	2081.51	0
4.555	2077.38	0
4.556	2073.26	0
4.557	2070.13	0
4.558	2068.01	0
4.559	2065.88	0
4.56	2063.75	0
4.561	2062.62	0
4.562	2061.5	0
4.563	2062.37	0
4.564	2064.24	0
4.565	2069.11	0
4.566	2073.98	0
4.567	2077.85	0
4.568	2080.72	0
4.569	2083.6	0
4.57	2082.47	0
4.571	2085.34	0
4.572	2086.21	0
4.573	2084.07	0
4.574	2080.94	0
4.575	2076.81	0
4.576	2072.68	0
4.577	2070.55	0
4.578	2067.42	0
4.579	2064.29	0
4.58	2064.15	0
4.581	2065.02	0
4.582	2064.89	0
4.583	2066.76	0
4.584	2067.62	0
4.585	2070.49	0
4.586	2076.35	0
4.587	2080.22	0
4.588	2083.09	0
4.589	2083.95	0
4.59	2084.82	0
4.591	2086.68	0
4.592	2087.55	0
4.593	2087.41	0
4.594	2083.27	0
4.595	2081.14	0
4.596	2078	0
4.597	2072.87	0
4.598	2070.73	0
4.599	2067.59	0
4.6	2067.45	0
4.601	2065.32	0
4.602	2066.18	0
4.603	2067.04	0
4.604	2068.9	0
4.605	2070.76	0
4.606	2078.63	0
4.607	2082.49	0
4.608	2086.35	0
4.609	2089.21	0
4.61	2090.07	0
4.611	2092.93	0
4.612	2090.79	0
4.613	2089.65	0
4.614	2085.51	0
4.615	2082.37	0
4.616	2077.23	0
4.617	2075.08	0
4.618	2073.94	0
4.619	2071.8	0
4.62	2071.66	0
4.621	2070.52	0
4.622	2070.37	0
4.623	2070.23	0
4.624	2074.09	0
4.625	2076.94	0
4.626	2081.8	0
4.627	2086.66	0
4.628	2089.51	0
4.629	2092.37	0
4.63	2092.23	0
4.631	2096.08	0
4.632	2095.94	0
4.633	2094.79	0
4.634	2090.65	0
4.635	2086.5	0
4.636	2084.35	0
4.637	2080.21	0
4.638	2077.06	0
4.639	2075.92	0
4.64	2073.77	0
4.641	2073.62	0
4.642	2072.48	0
4.643	2072.33	0
4.644	2075.18	0
4.645	2079.03	0
4.646	2084.88	0
4.647	2087.74	0
4.648	2091.59	0
4.649	2093.44	0
4.65	2094.29	0
4.651	2096.14	0
4.652	2095.99	0
4.653	2093.84	0
4.654	2089.69	0
4.655	2084.54	0
4.656	2082.39	0
4.657	2079.24	0
4.658	2075.09	0
4.659	2072.94	0
4.66	2070.79	0
4.661	2071.64	0
4.662	2069.49	0
4.663	2070.34	0
4.664	2072.18	0
4.665	2076.03	0
4.666	2080.88	0
4.667	2084.73	0
4.668	2089.58	0
4.669	2091.42	0
4.67	2093.27	0
4.671	2096.12	0
4.672	2095.96	0
4.673	2092.81	0
4.674	2089.65	0
4.675	2086.5	0
4.676	2083.35	0
4.677	2079.19	0
4.678	2076.04	0
4.679	2071.88	0
4.68	2071.73	0
4.681	2070.57	0
4.682	2071.42	0
4.683	2073.26	0
4.684	2073.1	0
4.685	2076.95	0
4.686	2083.79	0
4.687	2087.64	0
4.688	2090.48	0
4.689	2092.32	0
4.69	2093.16	0
4.691	2095.01	0
4.692	2094.85	0
4.693	2092.69	0
4.694	2089.53	0
4.695	2085.38	0
4.696	2081.22	0
4.697	2079.06	0
4.698	2075.9	0
4.699	2073.74	0
4.7	2072.58	0
4.701	2070.42	0
4.702	2071.26	0
4.703	2071.1	0
4.704	2071.94	0
4.705	2077.78	0
4.706	2081.62	0
4.707	2084.46	0
4.708	2086.3	0
4.709	2087.14	0
4.71	2088.98	0
4.711	2091.82	0
4.712	2091.66	0
4.713	2090.5	0
4.714	2087.34	0
4.715	2084.17	0
4.716	2082.01	0
4.717	2077.85	0
4.718	2074.69	0
4.719	2072.53	0
4.72	2072.36	0
4.721	2070.2	0
4.722	2070.04	0
4.723	2070.87	0
4.724	2072.71	0
4.725	2077.55	0
4.726	2082.38	0
4.727	2085.22	0
4.728	2087.05	0
4.729	2088.89	0
4.73	2089.73	0
4.731	2091.56	0
4.732	2091.4	0
4.733	2090.23	0
4.734	2086.07	0
4.735	2082.9	0
4.736	2079.73	0
4.737	2075.57	0
4.738	2072.4	0
4.739	2069.24	0
4.74	2068.07	0
4.741	2067.9	0
4.742	2067.74	0
4.743	2068.57	0
4.744	2070.4	0
4.745	2075.24	0
4.746	2079.07	0
4.747	2083.9	0
4.748	2086.73	0
4.749	2085.57	0
4.75	2089.4	0
4.751	2090.23	0
4.752	2091.06	0
4.753	2088.89	0
4.754	2085.73	0
4.755	2082.56	0
4.756	2079.39	0
4.757	2076.22	0
4.758	2073.05	0
4.759	2070.88	0
4.76	2068.71	0
4.761	2068.54	0
4.762	2068.37	0
4.763	2069.2	0
4.764	2071.03	0
4.765	2074.86	0
4.766	2078.69	0
4.767	2083.52	0
4.768	2085.35	0
4.769	2086.18	0
4.77	2087.01	0
4.771	2089.84	0
4.772	2089.67	0
4.773	2087.49	0
4.774	2084.32	0
4.775	2081.15	0
4.776	2076.98	0
4.777	2071.81	0
4.778	2067.64	0
4.779	2064.46	0
4.78	2064.29	0
4.781	2063.12	0
4.782	2063.95	0
4.783	2064.77	0
4.784	2065.6	0
4.785	2070.43	0
4.786	2076.25	0
4.787	2080.08	0
4.788	2083.91	0
4.789	2084.73	0
4.79	2086.56	0
4.791	2088.38	0
4.792	2087.21	0
4.793	2086.04	0
4.794	2081.86	0
4.795	2078.69	0
4.796	2075.51	0
4.797	2072.34	0
4.798	2068.16	0
4.799	2064.99	0
4.8	2062.81	0
4.801	2061.64	0
4.802	2062.46	0
4.803	2062.29	0
4.804	2065.11	0
4.805	2069.93	0
4.806	2074.76	0
4.807	2079.58	0
4.808	2082.41	0
4.809	2083.23	0
4.81	2084.05	0
4.811	2085.88	0
4.812	2085.7	0
4.813	2083.52	0
4.814	2079.35	0
4.815	2076.17	0
4.816	2071.99	0
4.817	2067.81	0
4.818	2064.64	0
4.819	2061.46	0
4.82	2061.28	0
4.821	2061.1	0
4.822	2059.93	0
4.823	2060.75	0
4.824	2063.57	0
4.825	2068.39	0
4.826	2073.21	0
4.827	2079.03	0
4.828	2082.86	0
4.829	2083.68	0
4.83	2085.5	0
4.831	2087.32	0
4.832	2087.14	0
4.833	2083.96	0
4.834	2079.78	0
4.835	2075.6	0
4.836	2070.42	0
4.837	2067.24	0
4.838	2064.06	0
4.839	2060.88	0
4.84	2059.7	0
4.841	2059.52	0
4.842	2060.34	0
4.843	2061.16	0
4.844	2062.98	0
4.845	2066.8	0
4.846	2071.62	0
4.847	2075.44	0
4.848	2078.26	0
4.849	2080.08	0
4.85	2080.9	0
4.851	2081.72	0
4.852	2081.54	0
4.853	2080.36	0
4.854	2077.17	0
4.855	2071.99	0
4.856	2068.81	0
4.857	2065.63	0
4.858	2061.45	0
4.859	2058.27	0
4.86	2058.08	0
4.861	2057.9	0
4.862	2056.72	0
4.863	2058.54	0
4.864	2059.36	0
4.865	2063.17	0
4.866	2066.99	0
4.867	2072.81	0
4.868	2075.63	0
4.869	2077.44	0
4.87	2078.26	0
4.871	2079.08	0
4.872	2078.89	0
4.873	2076.71	0
4.874	2072.53	0
4.875	2068.34	0
4.876	2064.16	0
4.877	2062.98	0
4.878	2058.79	0
4.879	2056.61	0
4.88	2054.43	0
4.881	2055.24	0
4.882	2055.06	0
4.883	2055.88	0
4.884	2057.69	0
4.885	2061.51	0
4.886	2066.32	0
4.887	2072.14	0
4.888	2074.96	0
4.889	2075.77	0
4.89	2077.59	0
4.891	2079.4	0
4.892	2078.22	0
4.893	2076.03	0
4.894	2073.85	0
4.895	2068.66	0
4.896	2065.48	0
4.897	2062.29	0
4.898	2059.11	0
4.899	2055.92	0
4.9	2055.74	0
4.901	2052.55	0
4.902	2052.37	0
4.903	2053.18	0
4.904	2056	0
4.905	2060.81	0
4.906	2065.63	0
4.907	2070.44	0
4.908	2072.25	0
4.909	2074.07	0
4.91	2074.88	0
4.911	2076.7	0
4.912	2076.51	0
4.913	2074.33	0
4.914	2071.14	0
4.915	2066.95	0
4.916	2063.77	0
4.917	2058.58	0
4.918	2057.4	0
4.919	2054.21	0
4.92	2053.02	0
4.921	2053.84	0
4.922	2052.65	0
4.923	2053.46	0
4.924	2055.28	0
4.925	2059.09	0
4.926	2064.9	0
4.927	2067.72	0
4.928	2069.53	0
4.929	2070.34	0
4.93	2072.16	0
4.931	2073.97	0
4.932	2072.78	0
4.933	2069.6	0
4.934	2068.41	0
4.935	2064.22	0
4.936	2061.03	0
4.937	2056.85	0
4.938	2053.66	0
4.939	2050.47	0
4.94	2050.29	0
4.941	2050.1	0
4.942	2048.91	0
4.943	2048.72	0
4.944	2050.54	0
4.945	2054.35	0
4.946	2060.16	0
4.947	2061.97	0
4.948	2064.79	0
4.949	2066.6	0
4.95	2066.41	0
4.951	2069.22	0
4.952	2068.04	0
4.953	2066.85	0
4.954	2062.66	0
4.955	2059.47	0
4.956	2054.28	0
4.957	2051.1	0
4.958	2047.91	0
4.959	2046.72	0
4.96	2045.53	0
4.961	2044.34	0
4.962	2043.16	0
4.963	2044.97	0
4.964	2046.78	0
4.965	2051.59	0
4.966	2056.4	0
4.967	2061.22	0
4.968	2063.03	0
4.969	2065.84	0
4.97	2067.65	0
4.971	2068.46	0
4.972	2067.28	0
4.973	2066.09	0
4.974	2061.9	0
4.975	2058.71	0
4.976	2054.52	0
4.977	2049.33	0
4.978	2045.15	0
4.979	2042.96	0
4.98	2039.77	0
4.981	2040.58	0
4.982	2039.39	0
4.983	2041.2	0
4.984	2042.02	0
4.985	2046.83	0
4.986	2051.64	0
4.987	2054.45	0
4.988	2058.26	0
4.989	2059.07	0
4.99	2059.88	0
4.991	2062.7	0
4.992	2062.51	0
4.993	2060.32	0
4.994	2057.13	0
4.995	2052.94	0
4.996	2048.75	0
4.997	2045.57	0
4.998	2042.38	0
4.999	2040.19	0
5	2041	0
5.001	2040.81	0
5.002	2040.62	0
5.003	2041.43	0
5.004	2044.25	0
5.005	2049.06	0
5.006	2055.87	0
5.007	2058.68	0
5.008	2062.49	0
5.009	2065.3	0
5.01	2068.12	0
5.011	2067.93	0
5.012	2068.74	0
5.013	2067.55	0
5.014	2063.36	0
5.015	2060.17	0
5.016	2056.98	0
5.017	2053.8	0
5.018	2051.61	0
5.019	2049.42	0
5.02	2048.23	0
5.021	2049.04	0
5.022	2048.85	0
5.023	2050.67	0
5.024	2051.48	0
5.025	2055.29	0
5.026	2060.1	0
5.027	2063.91	0
5.028	2065.72	0
5.029	2066.54	0
5.03	2069.35	0
5.031	2070.16	0
5.032	2069.97	0
5.033	2066.78	0
5.034	2062.6	0
5.035	2058.41	0
5.036	2053.22	0
5.037	2050.03	0
5.038	2046.84	0
5.039	2043.66	0
5.04	2043.47	0
5.041	2041.28	0
5.042	2042.09	0
5.043	2041.9	0
5.044	2044.72	0
5.045	2049.53	0
5.046	2054.34	0
5.047	2056.15	0
5.048	2058.96	0
5.049	2058.78	0
5.05	2060.59	0
5.051	2060.4	0
5.052	2059.21	0
5.053	2056.03	0
5.054	2050.84	0
5.055	2048.65	0
5.056	2045.46	0
5.057	2041.28	0
5.058	2038.09	0
5.059	2035.9	0
5.06	2033.71	0
5.061	2032.53	0
5.062	2033.34	0
5.063	2034.15	0
5.064	2036.97	0
5.065	2041.78	0
5.066	2046.59	0
5.067	2049.4	0
5.068	2051.22	0
5.069	2053.03	0
5.07	2053.84	0
5.071	2054.66	0
5.072	2054.47	0
5.073	2051.28	0
5.074	2047.1	0
5.075	2044.91	0
5.076	2039.72	0
5.077	2035.54	0
5.078	2031.35	0
5.079	2030.16	0
5.08	2027.98	0
5.081	2027.79	0
5.082	2027.6	0
5.083	2028.42	0
5.084	2030.23	0
5.085	2035.05	0
5.086	2040.86	0
5.087	2045.67	0
5.088	2047.49	0
5.089	2049.3	0
5.09	2050.12	0
5.091	2049.93	0
5.092	2048.75	0
5.093	2046.56	0
5.094	2042.37	0
5.095	2039.19	0
5.096	2036	0
5.097	2032.82	0
5.098	2030.63	0
5.099	2026.45	0
5.1	2026.26	0
5.101	2025.08	0
5.102	2024.89	0
5.103	2025.71	0
5.104	2028.52	0
5.105	2034.34	0
5.106	2038.15	0
5.107	2041.97	0
5.108	2043.78	0
5.109	2045.6	0
5.11	2047.41	0
5.111	2049.23	0
5.112	2048.04	0
5.113	2045.86	0
5.114	2040.68	0
5.115	2037.49	0
5.116	2035.31	0
5.117	2030.12	0
5.118	2027.94	0
5.119	2026.76	0
5.12	2024.57	0
5.121	2025.39	0
5.122	2024.21	0
5.123	2025.02	0
5.124	2027.84	0
5.125	2033.66	0
5.126	2036.47	0
5.127	2039.29	0
5.128	2040.11	0
5.129	2041.92	0
5.13	2044.74	0
5.131	2043.56	0
5.132	2044.37	0
5.133	2042.19	0
5.134	2038.01	0
5.135	2034.83	0
5.136	2030.64	0
5.137	2027.46	0
5.138	2023.28	0
5.139	2022.1	0
5.14	2021.92	0
5.141	2017.73	0
5.142	2018.55	0
5.143	2018.37	0
5.144	2018.19	0
5.145	2021.01	0
5.146	2022.83	0
5.147	2023.64	0
5.148	2020.46	0
5.149	2016.28	0
5.15	2013.1	0
5.151	2008.92	0
5.152	2002.74	0
5.153	1997.56	0
5.154	1992.38	0
5.155	1987.2	0
5.156	1983.02	0
5.157	1980.84	0
5.158	1980.66	0
5.159	1980.48	0
5.16	1983.3	0
5.161	1987.12	0
5.162	1989.94	0
5.163	1992.76	0
5.164	1998.58	0
5.165	2005.4	0
5.166	2012.22	0
5.167	2023.04	0
5.168	2034.86	0
5.169	2052.68	0
5.17	2078.5	0
5.171	2105.32	0
5.172	2138.14	0
5.173	2168.97	0
5.174	2197.79	0
5.175	2225.61	0
5.176	2246.43	0
5.177	2266.25	0
5.178	2284.07	0
5.179	2300.9	0
5.18	2315.72	0
5.181	2329.54	0
5.182	2341.36	0
5.183	2355.19	0
5.184	2369.01	0
5.185	2387.83	0
5.186	2405.65	0
5.187	2420.48	0
5.188	2431.3	1
5.189	2439.12	0
5.19	2442.95	0
5.191	2439.77	0
5.192	2430.59	0
5.193	2411.42	0
5.194	2383.24	0
5.195	2352.07	0
5.196	2310.89	0
5.197	2266.71	0
5.198	2224.54	0
5.199	2182.36	0
5.2	2143.19	0
5.201	2106.01	0
5.202	2076.84	0
5.203	2056.66	0
5.204	2044.49	0
5.205	2039.31	0
5.206	2037.14	0
5.207	2034.96	0
5.208	2032.79	0
5.209	2032.62	0
5.21	2032.44	0
5.211	2030.27	0
5.212	2027.09	0
5.213	2021.92	0
5.214	2015.75	0
5.215	2009.57	0
5.216	2004.4	0
5.217	1998.23	0
5.218	1992.05	0
5.219	1987.88	0
5.22	1985.71	0
5.221	1982.54	0
5.222	1981.36	0
5.223	1980.19	0
5.224	1982.02	0
5.225	1985.85	0
5.226	1988.68	0
5.227	1990.51	0
5.228	1991.33	0
5.229	1992.16	0
5.23	1993.99	0
5.231	1992.82	0
5.232	1989.65	0
5.233	1986.48	0
5.234	1982.31	0
5.235	1979.14	0
5.236	1973.97	0
5.237	1969.8	0
5.238	1968.63	0
5.239	1964.46	0
5.24	1964.29	0
5.241	1963.12	0
5.242	1963.95	0
5.243	1964.78	0
5.244	1966.61	0
5.245	1972.44	0
5.246	1975.27	0
5.247	1979.11	0
5.248	1980.94	0
5.249	1980.77	0
5.25	1983.6	0
5.251	1984.43	0
5.252	1983.27	0
5.253	1980.1	0
5.254	1974.93	0
5.255	1972.76	0
5.256	1968.6	0
5.257	1965.43	0
5.258	1962.26	0
5.259	1958.1	0
5.26	1958.93	0
5.261	1959.76	0
5.262	1958.6	0
5.263	1960.43	0
5.264	1964.27	0
5.265	1969.1	0
5.266	1973.93	0
5.267	1977.77	0
5.268	1979.6	0
5.269	1981.44	0
5.27	1983.27	0
5.271	1985.11	0
5.272	1982.95	0
5.273	1978.78	0
5.274	1975.62	0
5.275	1973.45	0
5.276	1969.29	0
5.277	1964.13	0
5.278	1959.96	0
5.279	1956.8	0
5.28	1958.64	0
5.281	1958.47	0
5.282	1959.31	0
5.283	1960.15	0
5.284	1962.99	0
5.285	1968.83	0
5.286	1972.66	0
5.287	1976.5	0
5.288	1978.34	0
5.289	1981.18	0
5.29	1984.02	0
5.291	1984.86	0
5.292	1984.7	0
5.293	1981.54	0
5.294	1978.38	0
5.295	1976.22	0
5.296	1971.06	0
5.297	1968.9	0
5.298	1966.74	0
5.299	1965.58	0
5.3	1966.42	0
5.301	1965.26	0
5.302	1966.1	0
5.303	1966.94	0
5.304	1969.78	0
5.305	1975.62	0
5.306	1980.47	0
5.307	1984.31	0
5.308	1986.15	0
5.309	1986.99	0
5.31	1989.84	0
5.311	1988.68	0
5.312	1988.52	0
5.313	1985.36	0
5.314	1982.21	0
5.315	1980.05	0
5.316	1976.9	0
5.317	1972.74	0
5.318	1970.58	0
5.319	1969.43	0
5.32	1969.27	0
5.321	1968.12	0
5.322	1968.96	0
5.323	1970.81	0
5.324	1972.65	0
5.325	1977.5	0
5.326	1983.35	0
5.327	1987.19	0
5.328	1990.04	0
5.329	1991.88	0
5.33	1993.73	0
5.331	1996.58	0
5.332	1995.42	0
5.333	1992.27	0
5.334	1988.12	0
5.335	1983.97	0
5.336	1981.82	0
5.337	1979.66	0
5.338	1975.51	0
5.339	1975.36	0
5.34	1974.21	0
5.341	1975.06	0
5.342	1974.91	0
5.343	1976.76	0
5.344	1979.61	0
5.345	1986.46	0
5.346	1991.31	0
5.347	1996.16	0
5.348	1997.01	0
5.349	1999.86	0
5.35	2002.71	0
5.351	2003.56	0
5.352	2002.41	0
5.353	1999.26	0
5.354	1995.12	0
5.355	1993.97	0
5.356	1989.82	0
5.357	1988.67	0
5.358	1985.52	0
5.359	1983.38	0
5.36	1985.23	0
5.361	1984.08	0
5.362	1982.94	0
5.363	1984.79	0
5.364	1987.65	0
5.365	1992.5	0
5.366	1997.35	0
5.367	2002.21	0
5.368	2004.06	0
5.369	2007.92	0
5.37	2008.77	0
5.371	2011.63	0
5.372	2011.49	0
5.373	2008.34	0
5.374	2006.2	0
5.375	2002.06	0
5.376	1999.91	0
5.377	1995.77	0
5.378	1993.63	0
5.379	1991.48	0
5.38	1993.34	0
5.381	1992.2	0
5.382	1994.06	0
5.383	1994.92	0
5.384	1997.77	0
5.385	2004.63	0
5.386	2009.49	0
5.387	2014.35	0
5.388	2017.21	0
5.389	2018.07	0
5.39	2020.93	0
5.391	2019.79	0
5.392	2019.65	0
5.393	2017.51	0
5.394	2015.37	0
5.395	2012.24	0
5.396	2008.1	0
5.397	2004.96	0
5.398	2003.82	0
5.399	2002.68	0
5.4	2004.55	0
5.401	2004.41	0
5.402	2004.27	0
5.403	2007.13	0
5.404	2010	0
5.405	2016.86	0
5.406	2020.73	0
5.407	2025.59	0
5.408	2027.45	0
5.409	2029.32	0
5.41	2031.18	0
5.411	2033.05	0
5.412	2031.91	0
5.413	2028.78	0
5.414	2025.65	0
5.415	2022.51	0
5.416	2019.38	0
5.417	2017.24	0
5.418	2015.11	0
5.419	2014.98	0
5.42	2015.85	0
5.421	2015.71	0
5.422	2016.58	0
5.423	2017.45	0
5.424	2020.32	0
5.425	2026.19	0
5.426	2030.06	0
5.427	2033.93	0
5.428	2035.79	0
5.429	2035.66	0
5.43	2039.53	0
5.431	2041.4	0
5.432	2040.28	0
5.433	2036.15	0
5.434	2032.02	0
5.435	2029.89	0
5.436	2023.76	0
5.437	2019.63	0
5.438	2017.5	0
5.439	2015.38	0
5.44	2016.25	0
5.441	2014.12	0
5.442	2013.99	0
5.443	2014.87	0
5.444	2017.74	0
5.445	2022.62	0
5.446	2025.49	0
5.447	2028.36	0
5.448	2028.24	0
5.449	2028.11	0
5.45	2028.99	0
5.451	2027.86	0
5.452	2025.74	0
5.453	2020.62	0
5.454	2015.49	0
5.455	2009.37	0
5.456	2006.25	0
5.457	2001.12	0
5.458	1995	0
5.459	1991.88	0
5.46	1990.76	0
5.461	1987.63	0
5.462	1986.51	0
5.463	1986.39	0
5.464	1988.27	0
5.465	1992.15	0
5.466	1995.03	0
5.467	1995.91	0
5.468	1994.79	0
5.469	1994.67	0
5.47	1995.55	0
5.471	1994.43	0
5.472	1991.31	0
5.473	1985.19	0
5.474	1979.07	0
5.475	1973.96	0
5.476	1966.84	0
5.477	1961.72	0
5.478	1956.6	0
5.479	1954.49	0
5.48	1950.37	0
5.481	1950.25	0
5.482	1949.14	0
5.483	1949.02	0
5.484	1949.91	0
5.485	1953.79	0
5.486	1957.68	0
5.487	1959.56	0
5.488	1961.45	0
5.489	1961.33	0
5.49	1962.22	0
5.491	1960.11	0
5.492	1956.99	0
5.493	1951.88	0
5.494	1946.77	0
5.495	1942.66	0
5.496	1936.54	0
5.497	1931.43	0
5.498	1928.32	0
5.499	1928.21	0
5.5	1927.1	0
5.501	1924.99	0
5.502	1923.88	0
5.503	1924.77	0
5.504	1927.66	0
5.505	1932.55	0
5.506	1935.44	0
5.507	1938.33	0
5.508	1939.22	0
5.509	1941.11	0
5.51	1942	0
5.511	1940.9	0
5.512	1937.79	0
5.513	1934.68	0
5.514	1930.58	0
5.515	1925.47	0
5.516	1920.36	0
5.517	1917.26	0
5.518	1914.15	0
5.519	1912.05	0
5.52	1911.94	0
5.521	1911.84	0
5.522	1912.73	0
5.523	1913.63	0
5.524	1918.52	0
5.525	1924.42	0
5.526	1928.32	0
5.527	1931.21	0
5.528	1933.11	0
5.529	1934.01	0
5.53	1935.91	0
5.531	1935.8	0
5.532	1933.7	0
5.533	1931.6	0
5.534	1927.5	0
5.535	1923.4	0
5.536	1921.3	0
5.537	1916.2	0
5.538	1913.1	0
5.539	1912	0
5.54	1910.9	0
5.541	1911.8	0
5.542	1912.7	0
5.543	1914.6	0
5.544	1918.51	0
5.545	1924.41	0
5.546	1928.31	0
5.547	1931.22	0
5.548	1933.12	0
5.549	1935.02	0
5.55	1936.93	0
5.551	1937.83	0
5.552	1936.73	0
5.553	1934.64	0
5.554	1930.54	0
5.555	1926.45	0
5.556	1923.36	0
5.557	1919.26	0
5.558	1917.17	0
5.559	1915.07	0
5.56	1915.98	0
5.561	1913.89	0
5.562	1915.8	0
5.563	1917.7	0
5.564	1921.61	0
5.565	1927.52	0
5.566	1931.43	0
5.567	1934.34	0
5.568	1936.25	0
5.569	1938.16	0
5.57	1941.07	0
5.571	1939.98	0
5.572	1938.89	0
5.573	1936.8	0
5.574	1932.71	0
5.575	1929.62	0
5.576	1925.54	0
5.577	1921.45	0
5.578	1919.36	0
5.579	1918.27	0
5.58	1917.19	0
5.581	1919.1	0
5.582	1920.01	0
5.583	1920.93	0
5.584	1924.84	0
5.585	1930.76	0
5.586	1933.67	0
5.587	1936.59	0
5.588	1940.5	0
5.589	1941.42	0
5.59	1941.34	0
5.591	1943.25	0
5.592	1941.17	0
5.593	1939.09	0
5.594	1934	0
5.595	1931.92	0
5.596	1927.84	0
5.597	1924.76	0
5.598	1922.68	0
5.599	1920.6	0
5.6	1921.52	0
5.601	1922.44	0
5.602	1923.36	0
5.603	1926.28	0
5.604	1929.2	0
5.605	1934.12	0
5.606	1940.04	0
5.607	1942.96	0
5.608	1942.89	0
5.609	1945.81	0
5.61	1946.73	0
5.611	1946.65	0
5.612	1943.58	0
5.613	1940.5	0
5.614	1937.43	0
5.615	1932.35	0
5.616	1929.27	0
5.617	1925.2	0
5.618	1921.13	0
5.619	1920.05	0
5.62	1919.98	0
5.621	1920.9	0
5.622	1920.83	0
5.623	1922.76	0
5.624	1927.68	0
5.625	1933.61	0
5.626	1938.54	0
5.627	1941.47	0
5.628	1943.4	0
5.629	1945.33	0
5.63	1946.26	0
5.631	1947.19	0
5.632	1944.12	0
5.633	1942.05	0
5.634	1937.98	0
5.635	1933.91	0
5.636	1931.84	0
5.637	1929.77	0
5.638	1926.7	0
5.639	1925.63	0
5.64	1924.57	0
5.641	1925.5	0
5.642	1925.43	0
5.643	1926.37	0
5.644	1930.3	0
5.645	1935.24	0
5.646	1940.17	0
5.647	1943.1	0
5.648	1946.04	0
5.649	1946.98	0
5.65	1948.91	0
5.651	1948.85	0
5.652	1946.78	0
5.653	1944.72	0
5.654	1940.66	0
5.655	1937.6	0
5.656	1933.53	0
5.657	1930.47	0
5.658	1927.41	0
5.659	1926.35	0
5.66	1926.29	0
5.661	1925.23	0
5.662	1926.17	0
5.663	1928.11	0
5.664	1932.05	0
5.665	1934.99	0
5.666	1940.93	0
5.667	1944.87	0
5.668	1944.82	0
5.669	1947.76	0
5.67	1948.7	0
5.671	1947.65	0
5.672	1946.59	0
5.673	1943.53	0
5.674	1939.48	0
5.675	1935.42	0
5.676	1932.37	0
5.677	1928.31	0
5.678	1926.26	0
5.679	1925.2	0
5.68	1924.15	0
5.681	1924.09	0
5.682	1925.04	0
5.683	1925.99	0
5.684	1930.94	0
5.685	1935.88	0
5.686	1940.83	0
5.687	1942.78	0
5.688	1946.73	0
5.689	1948.68	0
5.69	1951.63	0
5.691	1949.58	0
5.692	1948.53	0
5.693	1945.48	0
5.694	1942.43	0
5.695	1938.38	0
5.696	1934.33	0
5.697	1930.28	0
5.698	1927.24	0
5.699	1925.19	0
5.7	1923.14	0
5.701	1925.09	0
5.702	1925.05	0
5.703	1927	0
5.704	1930.96	0
5.705	1934.91	0
5.706	1940.87	0
5.707	1942.82	0
5.708	1945.78	0
5.709	1946.73	0
5.71	1947.69	0
5.711	1946.65	0
5.712	1945.6	0
5.713	1941.56	0
5.714	1937.52	0
5.715	1933.48	0
5.716	1931.44	0
5.717	1928.39	0
5.718	1926.35	0
5.719	1926.31	0
5.72	1927.27	0
5.721	1925.23	0
5.722	1925.19	0
5.723	1928.15	0
5.724	1933.12	0
5.725	1939.08	0
5.726	1944.04	0
5.727	1947	0
5.728	1949.96	0
5.729	1950.93	0
5.73	1950.89	0
5.731	1952.85	0
5.732	1949.82	0
5.733	1945.78	0
5.734	1941.75	0
5.735	1938.71	0
5.736	1934.68	0
5.737	1931.64	0
5.738	1929.61	0
5.739	1928.58	0
5.74	1928.54	0
5.741	1927.51	0
5.742	1926.48	0
5.743	1930.45	0
5.744	1935.41	0
5.745	1941.38	0
5.746	1945.35	0
5.747	1947.32	0
5.748	1950.29	0
5.749	1951.26	0
5.75	1952.23	0
5.751	1951.2	0
5.752	1948.17	0
5.753	1945.14	0
5.754	1942.12	0
5.755	1939.09	0
5.756	1934.06	0
5.757	1931.03	0
5.758	1928.01	0
5.759	1927.98	0
5.76	1927.95	0
5.761	1927.93	0
5.762	1926.9	0
5.763	1931.88	0
5.764	1936.85	0
5.765	1940.83	0
5.766	1944.8	0
5.767	1948.78	0
5.768	1950.76	0
5.769	1953.73	0
5.77	1954.71	0
5.771	1953.69	0
5.772	1951.67	0
5.773	1947.65	0
5.774	1944.62	0
5.775	1939.6	0
5.776	1935.58	0
5.777	1933.56	0
5.778	1930.54	0
5.779	1930.52	0
5.78	1929.5	0
5.781	1930.49	0
5.782	1930.47	0
5.783	1933.45	0
5.784	1937.43	0
5.785	1943.41	0
5.786	1947.4	0
5.787	1949.38	0
5.788	1952.36	0
5.789	1955.35	0
5.79	1956.33	0
5.791	1956.32	0
5.792	1952.3	0
5.793	1950.29	0
5.794	1946.27	0
5.795	1942.26	0
5.796	1937.25	0
5.797	1933.23	0
5.798	1931.22	0
5.799	1928.21	0
5.8	1930.2	0
5.801	1930.19	0
5.802	1930.17	0
5.803	1934.16	0
5.804	1937.15	0
5.805	1945.14	0
5.806	1949.13	0
5.807	1952.12	0
5.808	1954.11	0
5.809	1956.11	0
5.81	1956.1	0
5.811	1956.09	0
5.812	1955.08	0
5.813	1951.07	0
5.814	1948.07	0
5.815	1943.06	0
5.816	1940.05	0
5.817	1937.05	0
5.818	1934.04	0
5.819	1934.04	0
5.82	1934.03	0
5.821	1934.03	0
5.822	1935.02	0
5.823	1940.02	0
5.824	1944.02	0
5.825	1949.01	0
5.826	1953.01	0
5.827	1955.01	0
5.828	1958.01	0
5.829	1961	0
5.83	1963	0
5.831	1961	0
5.832	1959	0
5.833	1954	0
5.834	1950	0
5.835	1944	0
5.836	1939	0
5.837	1937	0
5.838	1935	0
5.839	1934.01	0
5.84	1935.01	0
5.841	1933.01	0
5.842	1935.01	0
5.843	1938.02	0
5.844	1942.02	0
5.845	1947.02	0
5.846	1954.03	0
5.847	1958.03	0
5.848	1959.04	0
5.849	1961.04	0
5.85	1961.05	0
5.851	1962.06	0
5.852	1959.06	0
5.853	1956.07	0
5.854	1952.08	0
5.855	1948.08	0
5.856	1944.09	0
5.857	1940.1	0
5.858	1939.11	0
5.859	1937.12	0
5.86	1939.13	0
5.861	1938.14	0
5.862	1940.15	0
5.863	1942.16	0
5.864	1948.17	0
5.865	1952.18	0
5.866	1957.19	0
5.867	1959.2	0
5.868	1961.21	0
5.869	1963.23	0
5.87	1964.24	0
5.871	1964.25	0
5.872	1962.27	0
5.873	1957.28	0
5.874	1954.29	0
5.875	1950.31	0
5.876	1946.32	0
5.877	1943.34	0
5.878	1940.35	0
5.879	1939.37	0
5.88	1939.39	0
5.881	1939.4	0
5.882	1940.42	0
5.883	1942.44	0
5.884	1948.46	0
5.885	1953.47	0
5.886	1957.49	0
5.887	1960.51	0
5.888	1962.53	0
5.889	1966.55	0
5.89	1967.57	0
5.891	1966.59	0
5.892	1963.61	0
5.893	1960.63	0
5.894	1956.65	0
5.895	1952.67	0
5.896	1948.7	0
5.897	1943.72	0
5.898	1941.74	0
5.899	1940.77	0
5.9	1939.79	0
5.901	1940.81	0
5.902	1940.84	0
5.903	1943.86	0
5.904	1949.89	0
5.905	1954.91	0
5.906	1958.94	0
5.907	1962.96	0
5.908	1965.99	0
5.909	1966.02	0
5.91	1968.04	0
5.911	1967.07	0
5.912	1966.1	0
5.913	1962.13	0
5.914	1958.15	0
5.915	1955.18	0
5.916	1950.21	0
5.917	1946.24	0
5.918	1943.27	0
5.919	1943.3	0
5.92	1942.33	0
5.921	1942.36	0
5.922	1944.39	0
5.923	1947.42	0
5.924	1954.46	0
5.925	1959.49	0
5.926	1962.52	0
5.927	1965.55	0
5.928	1966.59	0
5.929	1969.62	0
5.93	1969.66	0
5.931	1969.69	0
5.932	1966.72	0
5.933	1962.76	0
5.934	1959.79	0
5.935	1952.83	0
5.936	1949.87	0
5.937	1945.9	0
5.938	1943.94	0
5.939	1941.98	0
5.94	1943.01	0
5.941	1943.05	0
5.942	1943.09	0
5.943	1946.13	0
5.944	1954.17	0
5.945	1958.21	0
5.946	1964.25	0
5.947	1966.29	0
5.948	1968.33	0
5.949	1971.37	0
5.95	1971.41	0
5.951	1970.45	0
5.952	1967.49	0
5.953	1964.53	0
5.954	1961.58	0
5.955	1957.62	0
5.956	1952.66	0
5.957	1948.7	0
5.958	1946.75	0
5.959	1948.79	0
5.96	1946.84	0
5.961	1945.88	0
5.962	1947.93	0
5.963	1950.97	0
5.964	1956.02	0
5.965	1961.06	0
5.966	1966.11	0
5.967	1969.16	0
5.968	1972.2	0
5.969	1975.25	0
5.97	1975.3	0
5.971	1973.35	0
5.972	1970.4	0
5.973	1966.45	0
5.974	1963.49	0
5.975	1958.54	0
5.976	1955.59	0
5.977	1951.64	0
5.978	1948.7	0
5.979	1948.75	0
5.98	1947.8	0
5.981	1948.85	0
5.982	1948.9	0
5.983	1952.95	0
5.984	1958.01	0
5.985	1964.06	0
5.986	1967.11	0
5.987	1969.17	0
5.988	1970.22	0
5.989	1970.27	0
5.99	1972.33	0
5.991	1971.38	0
5.992	1969.44	0
5.993	1964.49	0
5.994	1961.55	0
5.995	1958.61	0
5.996	1954.66	0
5.997	1950.72	0
5.998	1948.78	0
5.999	1947.84	0
6	1946.89	0
6.001	1946.95	0
6.002	1948.01	0
6.003	1950.07	0
6.004	1955.13	0
6.005	1961.19	0
6.006	1966.25	0
6.007	1970.31	0
6.008	1972.37	0
6.009	1974.43	0
6.01	1974.49	0
6.011	1975.56	0
6.012	1973.62	0
6.013	1969.68	0
6.014	1966.74	0
6.015	1960.81	0
6.016	1958.87	0
6.017	1954.93	0
6.018	1954	0
6.019	1955.06	0
6.02	1954.13	0
6.021	1957.19	0
6.022	1957.26	0
6.023	1961.32	0
6.024	1966.39	0
6.025	1972.46	0
6.026	1977.52	0
6.027	1979.59	0
6.028	1982.66	0
6.029	1985.72	0
6.03	1986.79	0
6.031	1985.86	0
6.032	1982.93	0
6.033	1980	0
6.034	1975.07	0
6.035	1971.14	0
6.036	1967.21	0
6.037	1963.28	0
6.038	1960.35	0
6.039	1960.42	0
6.04	1961.49	0
6.041	1960.56	0
6.042	1962.64	0
6.043	1965.71	0
6.044	1970.78	0
6.045	1977.85	0
6.046	1980.93	0
6.047	1984	0
6.048	1985.08	0
6.049	1987.15	0
6.05	1987.22	0
6.051	1985.3	0
6.052	1982.37	0
6.053	1978.45	0
6.054	1974.53	0
6.055	1968.6	0
6.056	1964.68	0
6.057	1960.76	0
6.058	1956.83	0
6.059	1956.91	0
6.06	1957.99	0
6.061	1957.07	0
6.062	1958.15	0
6.063	1961.23	0
6.064	1967.3	0
6.065	1971.38	0
6.066	1976.46	0
6.067	1977.54	0
6.068	1978.62	0
6.069	1981.71	0
6.07	1980.79	0
6.071	1982.87	0
6.072	1978.95	0
6.073	1975.03	0
6.074	1973.11	0
6.075	1968.2	0
6.076	1965.28	0
6.077	1962.36	0
6.078	1960.45	0
6.079	1960.53	0
6.08	1958.62	0
6.081	1959.7	0
6.082	1959.79	0
6.083	1962.87	0
6.084	1967.96	0
6.085	1974.04	0
6.086	1979.13	0
6.087	1981.22	0
6.088	1983.3	0
6.089	1985.39	0
6.09	1986.48	0
6.091	1984.56	0
6.092	1981.65	0
6.093	1977.74	0
6.094	1973.83	0
6.095	1969.92	0
6.096	1966.01	0
6.097	1963.1	0
6.098	1962.19	0
6.099	1961.28	0
6.1	1960.37	0
6.101	1961.46	0
6.102	1961.55	0
6.103	1964.64	0
6.104	1970.74	0
6.105	1973.83	0
6.106	1978.92	0
6.107	1981.01	0
6.108	1983.11	0
6.109	1986.2	0
6.11	1986.29	0
6.111	1986.39	0
6.112	1982.48	0
6.113	1978.58	0
6.114	1975.67	0
6.115	1970.77	0
6.116	1965.86	0
6.117	1961.96	0
6.118	1962.05	0
6.119	1962.15	0
6.12	1963.25	0
6.121	1963.34	0
6.122	1964.44	0
6.123	1966.54	0
6.124	1971.64	0
6.125	1975.74	0
6.126	1980.83	0
6.127	1982.93	0
6.128	1986.03	0
6.129	1989.13	0
6.13	1988.23	0
6.131	1988.33	0
6.132	1985.43	0
6.133	1981.53	0
6.134	1978.63	0
6.135	1974.74	0
6.136	1970.84	0
6.137	1967.94	0
6.138	1965.04	0
6.139	1964.14	0
6.14	1965.25	0
6.141	1964.35	0
6.142	1964.45	0
6.143	1968.56	0
6.144	1974.66	0
6.145	1979.77	0
6.146	1983.87	0
6.147	1986.98	0
6.148	1988.08	0
6.149	1991.19	0
6.15	1991.29	0
6.151	1991.4	0
6.152	1987.5	0
6.153	1981.61	0
6.154	1976.72	0
6.155	1970.83	0
6.156	1964.93	0
6.157	1958.04	0
6.158	1953.15	0
6.159	1949.26	0
6.16	1943.37	0
6.161	1938.48	0
6.162	1934.58	0
6.163	1931.69	0
6.164	1932.8	0
6.165	1934.91	0
6.166	1936.02	0
6.167	1938.14	0
6.168	1941.25	0
6.169	1944.36	0
6.17	1946.47	0
6.171	1948.58	0
6.172	1949.69	0
6.173	1949.81	0
6.174	1947.92	0
6.175	1945.03	0
6.176	1942.14	0
6.177	1940.26	0
6.178	1942.37	0
6.179	1950.49	0
6.18	1965.6	0
6.181	1989.72	0
6.182	2019.83	0
6.183	2052.95	0
6.184	2094.06	0
6.185	2131.18	0
6.186	2167.29	0
6.187	2197.41	0
6.188	2222.53	0
6.189	2246.64	0
6.19	2264.76	0
6.191	2280.88	0
6.192	2292	0
6.193	2303.11	0
6.194	2313.23	0
6.195	2325.35	0
6.196	2338.47	0
6.197	2349.59	0
6.198	2363.71	0
6.199	2378.83	0
6.2	2387.95	1
6.201	2397.07	0
6.202	2403.19	0
6.203	2406.31	0
6.204	2404.43	0
6.205	2392.55	0
6.206	2369.67	0
6.207	2337.8	0
6.208	2300.92	0
6.209	2261.04	0
6.21	2218.16	0
6.211	2175.29	0
6.212	2132.41	0
6.213	2092.53	0
6.214	2059.66	0
6.215	2032.78	0
6.216	2011.91	0
6.217	1998.03	0
6.218	1990.16	0
6.219	1983.28	0
6.22	1979.41	0
6.221	1976.53	0
6.222	1974.66	0
6.223	1973.78	0
6.224	1976.91	0
6.225	1978.04	0
6.226	1980.16	0
6.227	1979.29	0
6.228	1979.42	0
6.229	1981.55	0
6.23	1978.67	0
6.231	1975.8	0
6.232	1970.93	0
6.233	1965.06	0
6.234	1960.19	0
6.235	1953.32	0
6.236	1947.45	0
6.237	1942.58	0
6.238	1938.71	0
6.239	1935.84	0
6.24	1934.97	0
6.241	1934.1	0
6.242	1934.23	0
6.243	1936.36	0
6.244	1940.49	0
6.245	1943.63	0
6.246	1947.76	0
6.247	1949.89	0
6.248	1952.02	0
6.249	1954.16	0
6.25	1954.29	0
6.251	1954.42	0
6.252	1951.56	0
6.253	1946.69	0
6.254	1942.82	0
6.255	1937.96	0
6.256	1933.09	0
6.257	1930.23	0
6.258	1929.36	0
6.259	1929.5	0
6.26	1928.63	0
6.261	1929.77	0
6.262	1930.91	0
6.263	1935.04	0
6.264	1942.18	0
6.265	1947.32	0
6.266	1951.45	0
6.267	1953.59	0
6.268	1956.73	0
6.269	1956.87	0
6.27	1959	0
6.271	1958.14	0
6.272	1952.28	0
6.273	1951.42	0
6.274	1948.56	0
6.275	1943.7	0
6.276	1939.84	0
6.277	1936.98	0
6.278	1934.12	0
6.279	1934.26	0
6.28	1934.4	0
6.281	1935.54	0
6.282	1937.68	0
6.283	1940.82	0
6.284	1945.96	0
6.285	1953.1	0
6.286	1959.25	0
6.287	1960.39	0
6.288	1964.53	0
6.289	1967.67	0
6.29	1967.82	0
6.291	1966.96	0
6.292	1964.1	0
6.293	1961.25	0
6.294	1955.39	0
6.295	1952.53	0
6.296	1948.68	0
6.297	1943.82	0
6.298	1943.97	0
6.299	1945.11	0
6.3	1944.26	0
6.301	1946.4	0
6.302	1947.55	0
6.303	1952.69	0
6.304	1956.84	0
6.305	1963.99	0
6.306	1968.13	0
6.307	1971.28	0
6.308	1972.43	0
6.309	1976.57	0
6.31	1976.72	0
6.311	1975.87	0
6.312	1974.02	0
6.313	1970.16	0
6.314	1967.31	0
6.315	1963.46	0
6.316	1959.61	0
6.317	1956.76	0
6.318	1954.91	0
6.319	1956.06	0
6.32	1954.21	0
6.321	1957.36	0
6.322	1958.51	0
6.323	1964.66	0
6.324	1969.81	0
6.325	1974.96	0
6.326	1978.11	0
6.327	1982.26	0
6.328	1984.41	0
6.329	1985.56	0
6.33	1988.71	0
6.331	1986.87	0
6.332	1984.02	0
6.333	1981.17	0
6.334	1978.32	0
6.335	1974.48	0
6.336	1969.63	0
6.337	1965.78	0
6.338	1965.94	0
6.339	1966.09	0
6.34	1965.24	0
6.341	1965.4	0
6.342	1967.55	0
6.343	1972.71	0
6.344	1980.86	0
6.345	1985.01	0
6.346	1991.17	0
6.347	1993.32	0
6.348	1997.48	0
6.349	1999.64	0
6.35	1999.79	0
6.351	1999.95	0
6.352	1998.1	0
6.353	1993.26	0
6.354	1989.42	0
6.355	1984.57	0
6.356	1981.73	0
6.357	1979.89	0
6.358	1979.05	0
6.359	1979.2	0
6.36	1978.36	0
6.361	1979.52	0
6.362	1981.68	0
6.363	1986.84	0
6.364	1993.99	0
6.365	1999.15	0
6.366	2004.31	0
6.367	2005.47	0
6.368	2007.63	0
6.369	2009.79	0
6.37	2010.95	0
6.371	2010.11	0
6.372	2008.27	0
6.373	2005.43	0
6.374	2002.59	0
6.375	1997.75	0
6.376	1993.91	0
6.377	1992.07	0
6.378	1990.23	0
6.379	1991.39	0
6.38	1992.56	0
6.381	1993.72	0
6.382	1993.88	0
6.383	1999.04	0
6.384	2005.2	0
6.385	2010.37	0
6.386	2014.53	0
6.387	2019.69	0
6.388	2022.85	0
6.389	2025.02	0
6.39	2028.18	0
6.391	2027.35	0
6.392	2025.51	0
6.393	2022.67	0
6.394	2018.84	0
6.395	2014	0
6.396	2010.17	0
6.397	2006.33	0
6.398	2006.49	0
6.399	2005.66	0
6.4	2005.82	0
6.401	2006.99	0
6.402	2010.16	0
6.403	2015.32	0
6.404	2020.49	0
6.405	2025.65	0
6.406	2030.82	0
6.407	2036.99	0
6.408	2039.15	0
6.409	2042.32	0
6.41	2045.48	0
6.411	2043.65	0
6.412	2039.82	0
6.413	2036.99	0
6.414	2033.15	0
6.415	2030.32	0
6.416	2026.49	0
6.417	2023.66	0
6.418	2023.83	0
6.419	2024.99	0
6.42	2026.16	0
6.421	2026.33	0
6.422	2029.5	0
6.423	2034.67	0
6.424	2039.84	0
6.425	2047.01	0
6.426	2052.18	0
6.427	2055.34	0
6.428	2057.51	0
6.429	2060.68	0
6.43	2061.85	0
6.431	2062.02	0
6.432	2059.19	0
6.433	2055.37	0
6.434	2052.54	0
6.435	2049.71	0
6.436	2045.88	0
6.437	2043.05	0
6.438	2042.22	0
6.439	2040.39	0
6.44	2041.56	0
6.441	2041.73	0
6.442	2043.91	0
6.443	2048.08	0
6.444	2053.25	0
6.445	2057.42	0
6.446	2062.59	0
6.447	2064.77	0
6.448	2066.94	0
6.449	2069.11	0
6.45	2069.29	0
6.451	2068.46	0
6.452	2065.63	0
6.453	2061.8	0
6.454	2058.98	0
6.455	2054.15	0
6.456	2050.33	0
6.457	2046.5	0
6.458	2044.67	0
6.459	2043.85	0
6.46	2043.02	0
6.461	2043.2	0
6.462	2043.37	0
6.463	2046.55	0
6.464	2050.72	0
6.465	2053.9	0
6.466	2057.07	0
6.467	2059.25	0
6.468	2061.42	0
6.469	2062.6	0
6.47	2059.77	0
6.471	2059.95	0
6.472	2055.12	0
6.473	2050.3	0
6.474	2044.48	0
6.475	2038.65	0
6.476	2031.83	0
6.477	2026.01	0
6.478	2022.18	0
6.479	2019.36	0
6.48	2017.54	0
6.481	2015.71	0
6.482	2014.89	0
6.483	2019.07	0
6.484	2022.24	0
6.485	2026.42	0
6.486	2028.6	0
6.487	2029.78	0
6.488	2029.96	0
6.489	2029.13	0
6.49	2028.31	0
6.491	2025.49	0
6.492	2021.67	0
6.493	2015.85	0
6.494	2010.02	0
6.495	2004.2	0
6.496	1998.38	0
6.497	1993.56	0
6.498	1990.74	0
6.499	1988.92	0
6.5	1988.1	0
6.501	1988.28	0
6.502	1987.46	0
6.503	1990.64	0
6.504	1993.82	0
6.505	1999	0
6.506	2001.18	0
6.507	2002.36	0
6.508	2005.54	0
6.509	2005.72	0
6.51	2004.9	0
6.511	2002.08	0
6.512	1999.26	0
6.513	1994.44	0
6.514	1987.62	0
6.515	1983.8	0
6.516	1978.98	0
6.517	1974.16	0
6.518	1972.34	0
6.519	1972.52	0
6.52	1969.7	0
6.521	1970.89	0
6.522	1972.07	0
6.523	1976.25	0
6.524	1980.43	0
6.525	1986.61	0
6.526	1988.79	0
6.527	1990.98	0
6.528	1994.16	0
6.529	1996.34	0
6.53	1997.52	0
6.531	1994.71	0
6.532	1992.89	0
6.533	1989.07	0
6.534	1985.25	0
6.535	1980.44	0
6.536	1975.62	0
6.537	1972.8	0
6.538	1971.98	0
6.539	1971.17	0
6.54	1970.35	0
6.541	1970.53	0
6.542	1971.72	0
6.543	1976.9	0
6.544	1983.08	0
6.545	1989.27	0
6.546	1992.45	0
6.547	1996.63	0
6.548	1999.82	0
6.549	2002	0
6.55	2001.19	0
6.551	1999.37	0
6.552	1997.55	0
6.553	1994.74	0
6.554	1991.92	0
6.555	1986.11	0
6.556	1982.29	0
6.557	1979.48	0
6.558	1978.66	0
6.559	1978.84	0
6.56	1978.03	0
6.561	1979.21	0
6.562	1980.4	0
6.563	1985.58	0
6.564	1992.77	0
6.565	1997.95	0
6.566	2003.14	0
6.567	2004.32	0
6.568	2008.51	0
6.569	2009.69	0
6.57	2011.88	0
6.571	2011.06	0
6.572	2007.25	0
6.573	2003.44	0
6.574	1999.62	0
6.575	1994.81	0
6.576	1991.99	0
6.577	1988.18	0
6.578	1987.36	0
6.579	1986.55	0
6.58	1986.74	0
6.581	1985.92	0
6.582	1989.11	0
6.583	1994.29	0
6.584	1999.48	0
6.585	2004.67	0
6.586	2010.85	0
6.587	2013.04	0
6.588	2017.23	0
6.589	2017.41	0
6.59	2018.6	0
6.591	2016.79	0
6.592	2013.97	0
6.593	2010.16	0
6.594	2007.35	0
6.595	2002.53	0
6.596	1998.72	0
6.597	1995.91	0
6.598	1995.09	0
6.599	1993.28	0
6.6	1995.47	0
6.601	1995.65	0
6.602	1997.84	0
6.603	2004.03	0
6.604	2010.22	0
6.605	2015.4	0
6.606	2018.59	0
6.607	2022.78	0
6.608	2026.96	0
6.609	2029.15	0
6.61	2029.34	0
6.611	2028.53	0
6.612	2024.71	0
6.613	2020.9	0
6.614	2016.09	0
6.615	2012.28	0
6.616	2008.46	0
6.617	2005.65	0
6.618	2005.84	0
6.619	2006.03	0
6.62	2005.21	0
6.621	2006.4	0
6.622	2008.59	0
6.623	2012.78	0
6.624	2017.97	0
6.625	2023.15	0
6.626	2026.34	0
6.627	2030.53	0
6.628	2032.72	0
6.629	2033.91	0
6.63	2035.09	0
6.631	2034.28	0
6.632	2030.47	0
6.633	2027.66	0
6.634	2023.85	0
6.635	2019.03	0
6.636	2016.22	0
6.637	2012.41	0
6.638	2010.6	0
6.639	2010.79	0
6.64	2008.98	0
6.641	2010.16	0
6.642	2013.35	0
6.643	2017.54	0
6.644	2022.73	0
6.645	2026.92	0
6.646	2031.11	0
6.647	2035.29	0
6.648	2037.48	0
6.649	2039.67	0
6.65	2039.86	0
6.651	2039.05	0
6.652	2036.24	0
6.653	2031.42	0
6.654	2027.61	0
6.655	2022.8	0
6.656	2019.99	0
6.657	2016.18	0
6.658	2015.37	0
6.659	2015.55	0
6.66	2016.74	0
6.661	2016.93	0
6.662	2019.12	0
6.663	2022.31	0
6.664	2028.5	0
6.665	2034.69	0
6.666	2038.87	0
6.667	2043.06	0
6.668	2044.25	0
6.669	2046.44	0
6.67	2048.63	0
6.671	2048.82	0
6.672	2045.01	0
6.673	2042.19	0
6.674	2038.38	0
6.675	2033.57	0
6.676	2027.76	0
6.677	2024.95	0
6.678	2023.14	0
6.679	2023.32	0
6.68	2023.51	0
6.681	2022.7	0
6.682	2024.89	0
6.683	2030.08	0
6.684	2035.27	0
6.685	2040.46	0
6.686	2044.64	0
6.687	2047.83	0
6.688	2051.02	0
6.689	2054.21	0
6.69	2054.4	0
6.691	2051.59	0
6.692	2049.77	0
6.693	2046.96	0
6.694	2044.15	0
6.695	2039.34	0
6.696	2035.53	0
6.697	2031.71	0
6.698	2029.9	0
6.699	2027.09	0
6.7	2028.28	0
6.701	2027.47	0
6.702	2029.66	0
6.703	2032.84	0
6.704	2041.03	0
6.705	2045.22	0
6.706	2049.41	0
6.707	2052.6	0
6.708	2055.78	0
6.709	2056.97	0
6.71	2057.16	0
6.711	2056.35	0
6.712	2053.53	0
6.713	2050.72	0
6.714	2045.91	0
6.715	2042.1	0
6.716	2037.29	0
6.717	2034.47	0
6.718	2032.66	0
6.719	2033.85	0
6.72	2033.04	0
6.721	2031.22	0
6.722	2034.41	0
6.723	2038.6	0
6.724	2043.79	0
6.725	2047.97	0
6.726	2052.16	0
6.727	2054.35	0
6.728	2058.54	0
6.729	2059.72	0
6.73	2060.91	0
6.731	2060.1	0
6.732	2057.28	0
6.733	2052.47	0
6.734	2050.66	0
6.735	2044.84	0
6.736	2040.03	0
6.737	2037.22	0
6.738	2036.41	0
6.739	2035.59	0
6.74	2035.78	0
6.741	2035.97	0
6.742	2038.15	0
6.743	2043.34	0
6.744	2049.53	0
6.745	2053.71	0
6.746	2058.9	0
6.747	2061.08	0
6.748	2065.27	0
6.749	2065.46	0
6.75	2065.64	0
6.751	2063.83	0
6.752	2061.02	0
6.753	2059.2	0
6.754	2054.39	0
6.755	2051.57	0
6.756	2047.76	0
6.757	2043.95	0
6.758	2044.13	0
6.759	2043.32	0
6.76	2043.5	0
6.761	2043.69	0
6.762	2045.87	0
6.763	2050.06	0
6.764	2055.24	0
6.765	2061.43	0
6.766	2064.61	0
6.767	2067.8	0
6.768	2071.98	0
6.769	2071.17	0
6.77	2072.35	0
6.771	2071.54	0
6.772	2069.72	0
6.773	2065.91	0
6.774	2062.09	0
6.775	2056.28	0
6.776	2052.46	0
6.777	2051.65	0
6.778	2050.83	0
6.779	2050.02	0
6.78	2051.2	0
6.781	2051.38	0
6.782	2053.57	0
6.783	2059.75	0
6.784	2064.94	0
6.785	2070.12	0
6.786	2074.3	0
6.787	2076.49	0
6.788	2080.67	0
6.789	2081.86	0
6.79	2082.04	0
6.791	2080.22	0
6.792	2079.41	0
6.793	2075.59	0
6.794	2072.77	0
6.795	2065.96	0
6.796	2062.14	0
6.797	2060.32	0
6.798	2059.5	0
6.799	2059.69	0
6.8	2058.87	0
6.801	2058.05	0
6.802	2061.23	0
6.803	2063.42	0
6.804	2069.6	0
6.805	2076.78	0
6.806	2079.96	0
6.807	2083.14	0
6.808	2087.33	0
6.809	2086.51	0
6.81	2088.69	0
6.811	2086.87	0
6.812	2084.05	0
6.813	2081.23	0
6.814	2076.42	0
6.815	2071.6	0
6.816	2066.78	0
6.817	2061.96	0
6.818	2061.14	0
6.819	2061.32	0
6.82	2060.5	0
6.821	2060.68	0
6.822	2062.86	0
6.823	2069.04	0
6.824	2074.22	0
6.825	2080.4	0
6.826	2084.58	0
6.827	2087.76	0
6.828	2090.94	0
6.829	2093.12	0
6.83	2092.3	0
6.831	2091.48	0
6.832	2089.66	0
6.833	2085.84	0
6.834	2080.02	0
6.835	2075.2	0
6.836	2073.38	0
6.837	2068.56	0
6.838	2066.74	0
6.839	2066.92	0
6.84	2066.09	0
6.841	2066.27	0
6.842	2069.45	0
6.843	2074.63	0
6.844	2078.81	0
6.845	2084.99	0
6.846	2089.16	0
6.847	2091.34	0
6.848	2095.52	0
6.849	2096.7	0
6.85	2095.87	0
6.851	2094.05	0
6.852	2091.23	0
6.853	2088.41	0
6.854	2083.58	0
6.855	2077.76	0
6.856	2072.94	0
6.857	2070.11	0
6.858	2069.29	0
6.859	2069.47	0
6.86	2068.64	0
6.861	2069.82	0
6.862	2070.99	0
6.863	2077.17	0
6.864	2083.34	0
6.865	2088.52	0
6.866	2092.7	0
6.867	2095.87	0
6.868	2099.05	0
6.869	2099.22	0
6.87	2100.4	0
6.871	2098.57	0
6.872	2094.75	0
6.873	2090.92	0
6.874	2088.09	0
6.875	2083.27	0
6.876	2078.44	0
6.877	2077.62	0
6.878	2075.79	0
6.879	2073.96	0
6.88	2076.14	0
6.881	2075.31	0
6.882	2077.48	0
6.883	2082.66	0
6.884	2088.83	0
6.885	2094	0
6.886	2097.18	0
6.887	2100.35	0
6.888	2103.52	0
6.889	2105.69	0
6.89	2105.86	0
6.891	2103.04	0
6.892	2100.21	0
6.893	2099.38	0
6.894	2094.55	0
6.895	2089.72	0
6.896	2084.89	0
6.897	2083.07	0
6.898	2081.24	0
6.899	2078.41	0
6.9	2080.58	0
6.901	2080.75	0
6.902	2082.92	0
6.903	2087.09	0
6.904	2094.26	0
6.905	2098.43	0
6.906	2102.6	0
6.907	2106.77	0
6.908	2109.94	0
6.909	2111.11	0
6.91	2111.28	0
6.911	2109.44	0
6.912	2106.61	0
6.913	2103.78	0
6.914	2098.95	0
6.915	2093.12	0
6.916	2087.29	0
6.917	2084.46	0
6.918	2085.62	0
6.919	2084.79	0
6.92	2084.96	0
6.921	2085.13	0
6.922	2088.29	0
6.923	2094.46	0
6.924	2097.63	0
6.925	2103.79	0
6.926	2106.96	0
6.927	2110.13	0
6.928	2112.29	0
6.929	2113.46	0
6.93	2114.62	0
6.931	2112.79	0
6.932	2109.95	0
6.933	2108.12	0
6.934	2101.29	0
6.935	2098.45	0
6.936	2094.62	0
6.937	2091.78	0
6.938	2091.94	0
6.939	2092.11	0
6.94	2091.27	0
6.941	2092.44	0
6.942	2093.6	0
6.943	2098.76	0
6.944	2103.93	0
6.945	2109.09	0
6.946	2113.25	0
6.947	2115.42	0
6.948	2119.58	0
6.949	2119.74	0
6.95	2119.9	0
6.951	2117.07	0
6.952	2115.23	0
6.953	2111.39	0
6.954	2106.55	0
6.955	2102.71	0
6.956	2098.87	0
6.957	2095.04	0
6.958	2095.2	0
6.959	2095.36	0
6.96	2094.52	0
6.961	2094.68	0
6.962	2096.84	0
6.963	2101	0
6.964	2108.16	0
6.965	2113.32	0
6.966	2118.48	0
6.967	2120.64	0
6.968	2122.79	0
6.969	2123.95	0
6.97	2123.11	0
6.971	2123.27	0
6.972	2119.43	0
6.973	2116.59	0
6.974	2111.74	0
6.975	2106.9	0
6.976	2101.06	0
6.977	2099.22	0
6.978	2098.37	0
6.979	2098.53	0
6.98	2098.69	0
6.981	2099.84	0
6.982	2101	0
6.983	2106.16	0
6.984	2113.31	0
6.985	2117.47	0
6.986	2121.62	0
6.987	2124.78	0
6.988	2126.93	0
6.989	2130.09	0
6.99	2130.24	0
6.991	2128.4	0
6.992	2125.55	0
6.993	2122.71	0
6.994	2116.86	0
6.995	2111.01	0
6.996	2107.17	0
6.997	2103.32	0
6.998	2103.47	0
6.999	2103.63	0
7	2103.78	0
7.001	2102.93	0
7.002	2107.08	0
7.003	2111.24	0
7.004	2117.39	0
7.005	2122.54	0
7.006	2124.69	0
7.007	2126.84	0
7.008	2129.99	0
7.009	2131.14	0
7.01	2131.29	0
7.011	2130.44	0
7.012	2127.59	0
7.013	2123.74	0
7.014	2118.89	0
7.015	2114.04	0
7.016	2109.19	0
7.017	2106.34	0
7.018	2104.49	0
7.019	2104.64	0
7.02	2103.79	0
7.021	2104.93	0
7.022	2107.08	0
7.023	2111.23	0
7.024	2115.38	0
7.025	2120.52	0
7.026	2124.67	0
7.027	2125.82	0
7.028	2129.96	0
7.029	2131.11	0
7.03	2130.26	0
7.031	2128.4	0
7.032	2124.55	0
7.033	2121.69	0
7.034	2115.84	0
7.035	2111.98	0
7.036	2107.13	0
7.037	2105.27	0
7.038	2106.42	0
7.039	2104.56	0
7.04	2105.71	0
7.041	2105.85	0
7.042	2108.99	0
7.043	2115.14	0
7.044	2119.28	0
7.045	2124.42	0
7.046	2127.56	0
7.047	2130.71	0
7.048	2134.85	0
7.049	2136.99	0
7.05	2139.13	0
7.051	2139.27	0
7.052	2136.41	0
7.053	2133.55	0
7.054	2129.69	0
7.055	2125.84	0
7.056	2120.98	0
7.057	2119.12	0
7.058	2119.25	0
7.059	2117.39	0
7.06	2117.53	0
7.061	2118.67	0
7.062	2120.81	0
7.063	2126.95	0
7.064	2132.09	0
7.065	2138.23	0
7.066	2141.36	0
7.067	2145.5	0
7.068	2147.64	0
7.069	2148.77	0
7.07	2147.91	0
7.071	2146.05	0
7.072	2141.18	0
7.073	2139.32	0
7.074	2133.46	0
7.075	2128.59	0
7.076	2123.73	0
7.077	2121.86	0
7.078	2121	0
7.079	2120.13	0
7.08	2118.26	0
7.081	2118.4	0
7.082	2119.53	0
7.083	2124.67	0
7.084	2128.8	0
7.085	2132.93	0
7.086	2135.07	0
7.087	2137.2	0
7.088	2139.33	0
7.089	2140.46	0
7.09	2140.59	0
7.091	2137.73	0
7.092	2134.86	0
7.093	2131.99	0
7.094	2126.12	0
7.095	2120.25	0
7.096	2115.38	0
7.097	2112.51	0
7.098	2112.64	0
7.099	2110.77	0
7.1	2111.9	0
7.101	2111.03	0
7.102	2115.15	0
7.103	2117.28	0
7.104	2123.41	0
7.105	2128.54	0
7.106	2131.67	0
7.107	2135.79	0
7.108	2139.92	0
7.109	2140.05	0
7.11	2139.17	0
7.111	2137.3	0
7.112	2134.43	0
7.113	2131.55	0
7.114	2127.68	0
7.115	2122.8	0
7.116	2118.93	0
7.117	2116.05	0
7.118	2115.18	0
7.119	2116.3	0
7.12	2115.43	0
7.121	2114.55	0
7.122	2117.67	0
7.123	2123.8	0
7.124	2128.92	0
7.125	2133.04	0
7.126	2135.16	0
7.127	2138.28	0
7.128	2141.41	0
7.129	2142.53	0
7.13	2142.65	0
7.131	2140.77	0
7.132	2138.89	0
7.133	2134.01	0
7.134	2130.13	0
7.135	2126.25	0
7.136	2121.37	0
7.137	2118.49	0
7.138	2117.61	0
7.139	2116.73	0
7.14	2115.85	0
7.141	2114.96	0
7.142	2118.08	0
7.143	2123.2	0
7.144	2127.32	0
7.145	2133.43	0
7.146	2135.55	0
7.147	2139.67	0
7.148	2143.78	0
7.149	2143.9	0
7.15	2145.02	0
7.151	2143.13	0
7.152	2140.25	0
7.153	2137.36	0
7.154	2132.48	0
7.155	2127.59	0
7.156	2122.7	0
7.157	2120.82	0
7.158	2121.93	0
7.159	2121.04	0
7.16	2121.16	0
7.161	2122.27	0
7.162	2124.38	0
7.163	2128.49	0
7.164	2134.61	0
7.165	2136.72	0
7.166	2140.83	0
7.167	2142.94	0
7.168	2146.05	0
7.169	2147.16	0
7.17	2148.27	0
7.171	2146.38	0
7.172	2145.49	0
7.173	2142.6	0
7.174	2135.71	0
7.175	2131.81	0
7.176	2126.92	0
7.177	2126.03	0
7.178	2125.14	0
7.179	2123.25	0
7.18	2123.35	0
7.181	2123.46	0
7.182	2125.57	0
7.183	2129.67	0
7.184	2135.78	0
7.185	2139.88	0
7.186	2141.99	0
7.187	2145.09	0
7.188	2146.2	0
7.189	2144.3	0
7.19	2141.41	0
7.191	2135.51	0
7.192	2128.62	0
7.193	2119.72	0
7.194	2108.82	0
7.195	2098.92	0
7.196	2091.03	0
7.197	2085.13	0
7.198	2082.23	0
7.199	2080.33	0
7.2	2079.43	0
7.201	2080.53	0
7.202	2086.63	0
7.203	2095.73	0
7.204	2102.83	0
7.205	2110.93	0
7.206	2118.03	0
7.207	2124.13	0
7.208	2127.23	0
7.209	2131.33	0
7.21	2135.43	0
7.211	2139.53	0
7.212	2148.62	0
7.213	2165.72	0
7.214	2184.82	0
7.215	2209.91	0
7.216	2238.01	0
7.217	2269.11	0
7.218	2303.2	0
7.219	2331.3	0
7.22	2357.39	0
7.221	2381.49	0
7.222	2405.58	0
7.223	2429.68	0
7.224	2449.77	0
7.225	2468.86	0
7.226	2486.96	0
7.227	2505.05	0
7.228	2524.14	0
7.229	2541.23	0
7.23	2555.33	0
7.231	2567.42	0
7.232	2574.51	1
7.233	2577.6	0
7.234	2575.69	0
7.235	2568.78	0
7.236	2557.87	0
7.237	2538.96	0
7.238	2513.05	0
7.239	2479.14	0
7.24	2439.23	0
7.241	2396.32	0
7.242	2356.41	0
7.243	2318.49	0
7.244	2283.58	0
7.245	2252.67	0
7.246	2227.76	0
7.247	2211.84	0
7.248	2199.93	0
7.249	2191.01	0
7.25	2183.1	0
7.251	2176.19	0
7.252	2171.27	0
7.253	2163.36	0
7.254	2156.44	0
7.255	2148.52	0
7.256	2140.61	0
7.257	2136.69	0
7.258	2130.78	0
7.259	2128.86	0
7.26	2123.94	0
7.261	2122.02	0
7.262	2123.1	0
7.263	2124.19	0
7.264	2125.27	0
7.265	2126.35	0
7.266	2127.43	0
7.267	2129.51	0
7.268	2129.59	0
7.269	2128.67	0
7.27	2127.75	0
7.271	2123.83	0
7.272	2120.91	0
7.273	2114.98	0
7.274	2110.06	0
7.275	2106.14	0
7.276	2099.22	0
7.277	2098.29	0
7.278	2096.37	0
7.279	2095.45	0
7.28	2092.52	0
7.281	2091.6	0
7.282	2092.68	0
7.283	2095.75	0
7.284	2100.83	0
7.285	2103.9	0
7.286	2106.97	0
7.287	2111.05	0
7.288	2114.12	0
7.289	2115.19	0
7.29	2115.27	0
7.291	2114.34	0
7.292	2112.41	0
7.293	2108.48	0
7.294	2104.56	0
7.295	2100.63	0
7.296	2095.7	0
7.297	2093.77	0
7.298	2092.84	0
7.299	2092.91	0
7.3	2091.98	0
7.301	2092.05	0
7.302	2095.12	0
7.303	2100.18	0
7.304	2104.25	0
7.305	2109.32	0
7.306	2112.39	0
7.307	2116.46	0
7.308	2118.52	0
7.309	2119.59	0
7.31	2119.65	0
7.311	2118.72	0
7.312	2117.79	0
7.313	2114.85	0
7.314	2110.92	0
7.315	2106.98	0
7.316	2102.05	0
7.317	2101.11	0
7.318	2098.17	0
7.319	2098.24	0
7.32	2097.3	0
7.321	2095.36	0
7.322	2098.42	0
7.323	2102.49	0
7.324	2108.55	0
7.325	2113.61	0
7.326	2117.67	0
7.327	2120.73	0
7.328	2123.79	0
7.329	2126.85	0
7.33	2125.91	0
7.331	2125.97	0
7.332	2125.03	0
7.333	2121.09	0
7.334	2118.14	0
7.335	2112.2	0
7.336	2109.26	0
7.337	2106.32	0
7.338	2105.37	0
7.339	2106.43	0
7.34	2104.49	0
7.341	2105.54	0
7.342	2108.6	0
7.343	2112.65	0
7.344	2118.71	0
7.345	2123.76	0
7.346	2127.82	0
7.347	2130.87	0
7.348	2133.92	0
7.349	2135.98	0
7.35	2136.03	0
7.351	2134.08	0
7.352	2133.13	0
7.353	2129.19	0
7.354	2125.24	0
7.355	2121.29	0
7.356	2118.34	0
7.357	2116.39	0
7.358	2116.44	0
7.359	2115.49	0
7.36	2116.54	0
7.361	2116.59	0
7.362	2119.64	0
7.363	2123.68	0
7.364	2130.73	0
7.365	2134.78	0
7.366	2138.83	0
7.367	2141.87	0
7.368	2145.92	0
7.369	2146.97	0
7.37	2148.01	0
7.371	2146.06	0
7.372	2143.1	0
7.373	2141.15	0
7.374	2136.19	0
7.375	2132.24	0
7.376	2129.28	0
7.377	2129.32	0
7.378	2127.37	0
7.379	2127.41	0
7.38	2126.45	0
7.381	2127.49	0
7.382	2129.54	0
7.383	2132.58	0
7.384	2138.62	0
7.385	2141.66	0
7.386	2146.7	0
7.387	2150.74	0
7.388	2152.78	0
7.389	2153.82	0
7.39	2153.86	0
7.391	2153.9	0
7.392	2151.94	0
7.393	2150.97	0
7.394	2148.01	0
7.395	2143.05	0
7.396	2139.08	0
7.397	2138.12	0
7.398	2136.16	0
7.399	2135.19	0
7.4	2134.23	0
7.401	2136.26	0
7.402	2138.3	0
7.403	2142.33	0
7.404	2147.37	0
7.405	2151.4	0
7.406	2155.43	0
7.407	2159.47	0
7.408	2163.5	0
7.409	2165.53	0
7.41	2166.56	0
7.411	2164.6	0
7.412	2163.63	0
7.413	2162.66	0
7.414	2158.69	0
7.415	2154.72	0
7.416	2151.75	0
7.417	2149.78	0
7.418	2148.81	0
7.419	2149.84	0
7.42	2147.87	0
7.421	2147.89	0
7.422	2150.92	0
7.423	2155.95	0
7.424	2161.98	0
7.425	2166	0
7.426	2170.03	0
7.427	2173.05	0
7.428	2177.08	0
7.429	2179.11	0
7.43	2180.13	0
7.431	2178.16	0
7.432	2178.18	0
7.433	2176.2	0
7.434	2171.23	0
7.435	2169.25	0
7.436	2166.27	0
7.437	2165.3	0
7.438	2166.32	0
7.439	2166.34	0
7.44	2165.36	0
7.441	2165.38	0
7.442	2168.4	0
7.443	2173.42	0
7.444	2178.44	0
7.445	2182.46	0
7.446	2186.48	0
7.447	2192.5	0
7.448	2195.52	0
7.449	2197.54	0
7.45	2199.56	0
7.451	2199.57	0
7.452	2199.59	0
7.453	2197.61	0
7.454	2194.62	0
7.455	2189.64	0
7.456	2184.66	0
7.457	2182.67	0
7.458	2182.69	0
7.459	2180.7	0
7.46	2180.72	0
7.461	2180.73	0
7.462	2183.74	0
7.463	2186.76	0
7.464	2192.77	0
7.465	2196.78	0
7.466	2200.79	0
7.467	2203.81	0
7.468	2207.82	0
7.469	2209.83	0
7.47	2212.84	0
7.471	2210.85	0
7.472	2209.86	0
7.473	2206.87	0
7.474	2202.88	0
7.475	2198.89	0
7.476	2193.9	0
7.477	2191.91	0
7.478	2190.91	0
7.479	2190.92	0
7.48	2188.93	0
7.481	2190.94	0
7.482	2191.94	0
7.483	2195.95	0
7.484	2198.95	0
7.485	2202.96	0
7.486	2206.97	0
7.487	2209.97	0
7.488	2210.97	0
7.489	2212.98	0
7.49	2211.98	0
7.491	2210.99	0
7.492	2208.99	0
7.493	2204.99	0
7.494	2199.99	0
7.495	2194	0
7.496	2189	0
7.497	2188	0
7.498	2185	0
7.499	2181	0
7.5	2178	0
7.501	2176	0
7.502	2175	0
7.503	2178	0
7.504	2180	0
7.505	2181	0
7.506	2182.99	0
7.507	2183.99	0
7.508	2184.99	0
7.509	2185.99	0
7.51	2183.98	0
7.511	2179.98	0
7.512	2176.97	0
7.513	2171.97	0
7.514	2166.97	0
7.515	2159.96	0
7.516	2154.95	0
7.517	2151.95	0
7.518	2147.94	0
7.519	2144.94	0
7.52	2142.93	0
7.521	2140.92	0
7.522	2140.91	0
7.523	2141.91	0
7.524	2142.9	0
7.525	2143.89	0
7.526	2147.88	0
7.527	2147.87	0
7.528	2149.86	0
7.529	2148.85	0
7.53	2147.84	0
7.531	2144.83	0
7.532	2143.82	0
7.533	2138.81	0
7.534	2133.79	0
7.535	2126.78	0
7.536	2121.77	0
7.537	2117.76	0
7.538	2115.74	0
7.539	2113.73	0
7.54	2110.72	0
7.541	2108.7	0
7.542	2109.69	0
7.543	2111.67	0
7.544	2114.66	0
7.545	2117.64	0
7.546	2119.62	0
7.547	2122.61	0
7.548	2123.59	0
7.549	2125.57	0
7.55	2124.56	0
7.551	2123.54	0
7.552	2120.52	0
7.553	2116.5	0
7.554	2111.48	0
7.555	2105.46	0
7.556	2101.44	0
7.557	2098.42	0
7.558	2098.4	0
7.559	2096.38	0
7.56	2094.36	0
7.561	2093.34	0
7.562	2094.32	0
7.563	2098.3	0
7.564	2101.27	0
7.565	2106.25	0
7.566	2109.23	0
7.567	2112.2	0
7.568	2116.18	0
7.569	2116.16	0
7.57	2116.13	0
7.571	2114.11	0
7.572	2113.08	0
7.573	2110.05	0
7.574	2107.03	0
7.575	2101	0
7.576	2097.98	0
7.577	2094.95	0
7.578	2093.92	0
7.579	2092.89	0
7.58	2091.87	0
7.581	2091.84	0
7.582	2094.81	0
7.583	2097.78	0
7.584	2100.75	0
7.585	2103.72	0
7.586	2107.69	0
7.587	2112.66	0
7.588	2113.63	0
7.589	2115.6	0
7.59	2115.56	0
7.591	2115.53	0
7.592	2115.5	0
7.593	2111.47	0
7.594	2108.43	0
7.595	2103.4	0
7.596	2100.37	0
7.597	2099.33	0
7.598	2097.3	0
7.599	2095.26	0
7.6	2094.23	0
7.601	2094.19	0
7.602	2097.16	0
7.603	2100.12	0
7.604	2105.08	0
7.605	2108.05	0
7.606	2113.01	0
7.607	2115.97	0
7.608	2118.94	0
7.609	2119.9	0
7.61	2119.86	0
7.611	2118.82	0
7.612	2119.78	0
7.613	2116.74	0
7.614	2113.7	0
7.615	2108.66	0
