0.000000	0.019000	0
0.005000	0.021000	0
0.010000	0.023000	0
0.015000	0.026000	0
0.020000	0.028000	0
0.025000	0.033000	0
0.030000	0.037000	0
0.035000	0.042000	0
0.040000	0.046000	0
0.045000	0.050000	0
0.050000	0.054000	0
0.055000	0.058000	0
0.060000	0.062000	0
0.065000	0.065000	0
0.070000	0.069000	0
0.075000	0.073000	0
0.080000	0.077000	0
0.085000	0.080000	0
0.090000	0.083000	0
0.095000	0.086000	0
0.100000	0.090000	0
0.105000	0.090000	0
0.110000	0.090000	0
0.115000	0.091000	0
0.120000	0.091000	0
0.125000	0.089000	0
0.130000	0.087000	0
0.135000	0.085000	0
0.140000	0.083000	0
0.145000	0.081000	0
0.150000	0.079000	0
0.155000	0.077000	0
0.160000	0.075000	0
0.165000	0.074000	0
0.170000	0.073000	0
0.175000	0.073000	0
0.180000	0.072000	0
0.185000	0.073000	0
0.190000	0.073000	0
0.195000	0.074000	0
0.200000	0.075000	0
0.205000	0.076000	0
0.210000	0.078000	0
0.215000	0.079000	0
0.220000	0.081000	0
0.225000	0.081000	0
0.230000	0.082000	0
0.235000	0.083000	0
0.240000	0.084000	0
0.245000	0.083000	0
0.250000	0.083000	0
0.255000	0.083000	0
0.260000	0.083000	0
0.265000	0.083000	0
0.270000	0.082000	0
0.275000	0.082000	0
0.280000	0.082000	0
0.285000	0.081000	0
0.290000	0.081000	0
0.295000	0.080000	0
0.300000	0.080000	0
0.305000	0.079000	0
0.310000	0.078000	0
0.315000	0.077000	0
0.320000	0.076000	0
0.325000	0.074000	0
0.330000	0.073000	0
0.335000	0.072000	0
0.340000	0.071000	0
0.345000	0.069000	0
0.350000	0.068000	0
0.355000	0.067000	0
0.360000	0.066000	0
0.365000	0.065000	0
0.370000	0.064000	0
0.375000	0.064000	0
0.380000	0.063000	0
0.385000	0.064000	0
0.390000	0.064000	0
0.395000	0.065000	0
0.400000	0.065000	0
0.405000	0.065000	0
0.410000	0.066000	0
0.415000	0.066000	0
0.420000	0.066000	0
0.425000	0.067000	0
0.430000	0.067000	0
0.435000	0.068000	0
0.440000	0.068000	0
0.445000	0.070000	0
0.450000	0.071000	0
0.455000	0.073000	0
0.460000	0.074000	0
0.465000	0.073000	0
0.470000	0.072000	0
0.475000	0.071000	0
0.480000	0.070000	0
0.485000	0.066000	0
0.490000	0.063000	0
0.495000	0.060000	0
0.500000	0.057000	0
0.505000	0.055000	0
0.510000	0.053000	0
0.515000	0.051000	0
0.520000	0.049000	0
0.525000	0.048000	0
0.530000	0.047000	0
0.535000	0.047000	0
0.540000	0.046000	0
0.545000	0.044000	0
0.550000	0.042000	0
0.555000	0.040000	0
0.560000	0.038000	0
0.565000	0.068000	0
0.570000	0.098000	0
0.575000	0.128000	0
0.580000	0.158000	0
0.585000	0.193000	0
0.590000	0.229000	0
0.595000	0.265000	0
0.600000	0.301000	1
0.605000	0.264000	0
0.610000	0.227000	0
0.615000	0.190000	0
0.620000	0.153000	0
0.625000	0.106000	0
0.630000	0.060000	0
0.635000	0.013000	0
0.640000	-0.032000	0
0.645000	-0.030000	0
0.650000	-0.028000	0
0.655000	-0.026000	0
0.660000	-0.024000	0
0.665000	-0.015000	0
0.670000	-0.006000	0
0.675000	0.001000	0
0.680000	0.010000	0
0.685000	0.011000	0
0.690000	0.012000	0
0.695000	0.013000	0
0.700000	0.014000	0
0.705000	0.013000	0
0.710000	0.013000	0
0.715000	0.012000	0
0.720000	0.012000	0
0.725000	0.013000	0
0.730000	0.013000	0
0.735000	0.014000	0
0.740000	0.014000	0
0.745000	0.015000	0
0.750000	0.016000	0
0.755000	0.017000	0
0.760000	0.018000	0
0.765000	0.017000	0
0.770000	0.017000	0
0.775000	0.017000	0
0.780000	0.017000	0
0.785000	0.019000	0
0.790000	0.020000	0
0.795000	0.022000	0
0.800000	0.023000	0
0.805000	0.027000	0
0.810000	0.030000	0
0.815000	0.034000	0
0.820000	0.038000	0
0.825000	0.040000	0
0.830000	0.043000	0
0.835000	0.045000	0
0.840000	0.048000	0
0.845000	0.050000	0
0.850000	0.053000	0
0.855000	0.055000	0
0.860000	0.058000	0
0.865000	0.060000	0
0.870000	0.063000	0
0.875000	0.066000	0
0.880000	0.069000	0
0.885000	0.070000	0
0.890000	0.070000	0
0.895000	0.071000	0
0.900000	0.071000	0
0.905000	0.069000	0
0.910000	0.067000	0
0.915000	0.064000	0
0.920000	0.062000	0
0.925000	0.059000	0
0.930000	0.057000	0
0.935000	0.054000	0
0.940000	0.051000	0
0.945000	0.050000	0
0.950000	0.050000	0
0.955000	0.049000	0
0.960000	0.048000	0
0.965000	0.048000	0
0.970000	0.048000	0
0.975000	0.048000	0
0.980000	0.049000	0
0.985000	0.049000	0
0.990000	0.050000	0
0.995000	0.051000	0
1.000000	0.052000	0
1.005000	0.053000	0
1.010000	0.054000	0
1.015000	0.056000	0
1.020000	0.057000	0
1.025000	0.057000	0
1.030000	0.058000	0
1.035000	0.058000	0
1.040000	0.059000	0
1.045000	0.058000	0
1.050000	0.058000	0
1.055000	0.057000	0
1.060000	0.057000	0
1.065000	0.057000	0
1.070000	0.056000	0
1.075000	0.056000	0
1.080000	0.055000	0
1.085000	0.054000	0
1.090000	0.054000	0
1.095000	0.053000	0
1.100000	0.053000	0
1.105000	0.052000	0
1.110000	0.051000	0
1.115000	0.050000	0
1.120000	0.049000	0
1.125000	0.048000	0
1.130000	0.047000	0
1.135000	0.046000	0
1.140000	0.045000	0
1.145000	0.044000	0
1.150000	0.043000	0
1.155000	0.042000	0
1.160000	0.042000	0
1.165000	0.041000	0
1.170000	0.041000	0
1.175000	0.040000	0
1.180000	0.040000	0
1.185000	0.039000	0
1.190000	0.039000	0
1.195000	0.038000	0
1.200000	0.038000	0
1.205000	0.037000	0
1.210000	0.037000	0
1.215000	0.037000	0
1.220000	0.037000	0
1.225000	0.038000	0
1.230000	0.038000	0
1.235000	0.039000	0
1.240000	0.039000	0
1.245000	0.041000	0
1.250000	0.042000	0
1.255000	0.044000	0
1.260000	0.045000	0
1.265000	0.046000	0
1.270000	0.047000	0
1.275000	0.047000	0
1.280000	0.048000	0
1.285000	0.046000	0
1.290000	0.045000	0
1.295000	0.043000	0
1.300000	0.041000	0
1.305000	0.038000	0
1.310000	0.036000	0
1.315000	0.033000	0
1.320000	0.030000	0
1.325000	0.028000	0
1.330000	0.027000	0
1.335000	0.025000	0
1.340000	0.023000	0
1.345000	0.023000	0
1.350000	0.023000	0
1.355000	0.022000	0
1.360000	0.022000	0
1.365000	0.022000	0
1.370000	0.021000	0
1.375000	0.021000	0
1.380000	0.020000	0
1.385000	0.062000	0
1.390000	0.105000	0
1.395000	0.147000	0
1.400000	0.190000	0
1.405000	0.212000	0
1.410000	0.235000	0
1.415000	0.257000	1
1.420000	0.280000	0
1.425000	0.227000	0
1.430000	0.174000	0
1.435000	0.121000	0
1.440000	0.068000	0
1.445000	0.037000	0
1.450000	0.006000	0
1.455000	-0.024000	0
1.460000	-0.055000	0
1.465000	-0.048000	0
1.470000	-0.041000	0
1.475000	-0.034000	0
1.480000	-0.028000	0
1.485000	-0.023000	0
1.490000	-0.018000	0
1.495000	-0.013000	0
1.500000	-0.008000	0
1.505000	-0.008000	0
1.510000	-0.009000	0
1.515000	-0.009000	0
1.520000	-0.010000	0
1.525000	-0.010000	0
1.530000	-0.010000	0
1.535000	-0.010000	0
1.540000	-0.011000	0
1.545000	-0.010000	0
1.550000	-0.009000	0
1.555000	-0.008000	0
1.560000	-0.007000	0
1.565000	-0.006000	0
1.570000	-0.005000	0
1.575000	-0.004000	0
1.580000	-0.004000	0
1.585000	-0.003000	0
1.590000	-0.003000	0
1.595000	-0.002000	0
1.600000	-0.002000	0
1.605000	0.000000	0
1.610000	0.001000	0
1.615000	0.003000	0
1.620000	0.005000	0
1.625000	0.008000	0
1.630000	0.012000	0
1.635000	0.015000	0
1.640000	0.019000	0
1.645000	0.021000	0
1.650000	0.024000	0
1.655000	0.026000	0
1.660000	0.029000	0
1.665000	0.031000	0
1.670000	0.033000	0
1.675000	0.035000	0
1.680000	0.038000	0
1.685000	0.040000	0
1.690000	0.043000	0
1.695000	0.045000	0
1.700000	0.048000	0
1.705000	0.048000	0
1.710000	0.048000	0
1.715000	0.048000	0
1.720000	0.049000	0
1.725000	0.046000	0
1.730000	0.043000	0
1.735000	0.040000	0
1.740000	0.037000	0
1.745000	0.034000	0
1.750000	0.031000	0
1.755000	0.028000	0
1.760000	0.025000	0
1.765000	0.024000	0
1.770000	0.023000	0
1.775000	0.021000	0
1.780000	0.020000	0
1.785000	0.020000	0
1.790000	0.020000	0
1.795000	0.020000	0
1.800000	0.020000	0
1.805000	0.021000	0
1.810000	0.022000	0
1.815000	0.023000	0
1.820000	0.025000	0
1.825000	0.025000	0
1.830000	0.026000	0
1.835000	0.027000	0
1.840000	0.028000	0
1.845000	0.028000	0
1.850000	0.027000	0
1.855000	0.027000	0
1.860000	0.027000	0
1.865000	0.026000	0
1.870000	0.025000	0
1.875000	0.025000	0
1.880000	0.024000	0
1.885000	0.023000	0
1.890000	0.023000	0
1.895000	0.022000	0
1.900000	0.022000	0
1.905000	0.021000	0
1.910000	0.020000	0
1.915000	0.020000	0
1.920000	0.019000	0
1.925000	0.018000	0
1.930000	0.016000	0
1.935000	0.015000	0
1.940000	0.014000	0
1.945000	0.012000	0
1.950000	0.011000	0
1.955000	0.010000	0
1.960000	0.009000	0
1.965000	0.009000	0
1.970000	0.008000	0
1.975000	0.008000	0
1.980000	0.008000	0
1.985000	0.007000	0
1.990000	0.007000	0
1.995000	0.007000	0
2.000000	0.007000	0
2.005000	0.007000	0
2.010000	0.007000	0
2.015000	0.007000	0
2.020000	0.008000	0
2.025000	0.008000	0
2.030000	0.008000	0
2.035000	0.009000	0
2.040000	0.009000	0
2.045000	0.009000	0
2.050000	0.010000	0
2.055000	0.010000	0
2.060000	0.011000	0
2.065000	0.011000	0
2.070000	0.011000	0
2.075000	0.012000	0
2.080000	0.012000	0
2.085000	0.011000	0
2.090000	0.010000	0
2.095000	0.008000	0
2.100000	0.007000	0
2.105000	0.005000	0
2.110000	0.002000	0
2.115000	0.000000	0
2.120000	-0.002000	0
2.125000	-0.003000	0
2.130000	-0.004000	0
2.135000	-0.005000	0
2.140000	-0.007000	0
2.145000	-0.007000	0
2.150000	-0.007000	0
2.155000	-0.007000	0
2.160000	-0.007000	0
2.165000	-0.008000	0
2.170000	-0.010000	0
2.175000	-0.011000	0
2.180000	-0.013000	0
2.185000	-0.004000	0
2.190000	0.004000	0
2.195000	0.013000	0
2.200000	0.023000	0
2.205000	0.050000	0
2.210000	0.078000	0
2.215000	0.106000	0
2.220000	0.134000	0
2.225000	0.116000	1
2.230000	0.098000	0
2.235000	0.080000	0
2.240000	0.063000	0
2.245000	0.027000	0
2.250000	-0.008000	0
2.255000	-0.043000	0
2.260000	-0.079000	0
2.265000	-0.075000	0
2.270000	-0.071000	0
2.275000	-0.067000	0
2.280000	-0.063000	0
2.285000	-0.056000	0
2.290000	-0.050000	0
2.295000	-0.044000	0
2.300000	-0.038000	0
2.305000	-0.036000	0
2.310000	-0.035000	0
2.315000	-0.033000	0
2.320000	-0.032000	0
2.325000	-0.031000	0
2.330000	-0.031000	0
2.335000	-0.030000	0
2.340000	-0.030000	0
2.345000	-0.029000	0
2.350000	-0.028000	0
2.355000	-0.027000	0
2.360000	-0.026000	0
2.365000	-0.026000	0
2.370000	-0.026000	0
2.375000	-0.025000	0
2.380000	-0.025000	0
2.385000	-0.026000	0
2.390000	-0.027000	0
2.395000	-0.027000	0
2.400000	-0.028000	0
2.405000	-0.059000	0
2.410000	-0.090000	0
2.415000	-0.121000	0
2.420000	-0.152000	0
2.425000	-0.147000	0
2.430000	-0.143000	0
2.435000	-0.139000	0
2.440000	-0.135000	0
2.445000	-0.099000	0
2.450000	-0.063000	0
2.455000	-0.027000	0
2.460000	0.008000	0
2.465000	0.011000	0
2.470000	0.014000	0
2.475000	0.017000	0
2.480000	0.020000	0
2.485000	0.023000	0
2.490000	0.027000	0
2.495000	0.030000	0
2.500000	0.034000	0
2.505000	0.035000	0
2.510000	0.037000	0
2.515000	0.038000	0
2.520000	0.040000	0
2.525000	0.039000	0
2.530000	0.037000	0
2.535000	0.036000	0
2.540000	0.035000	0
2.545000	0.001000	0
2.550000	-0.033000	0
2.555000	-0.067000	0
2.560000	-0.101000	0
2.565000	-0.133000	0
2.570000	-0.166000	0
2.575000	-0.199000	0
2.580000	-0.232000	0
2.585000	-0.231000	0
2.590000	-0.230000	0
2.595000	-0.229000	0
2.600000	-0.229000	0
2.605000	-0.227000	0
2.610000	-0.225000	0
2.615000	-0.223000	0
2.620000	-0.221000	0
2.625000	-0.220000	0
2.630000	-0.219000	0
2.635000	-0.218000	0
2.640000	-0.218000	0
2.645000	-0.217000	0
2.650000	-0.217000	0
2.655000	-0.216000	0
2.660000	-0.216000	0
2.665000	-0.215000	0
2.670000	-0.215000	0
2.675000	-0.214000	0
2.680000	-0.214000	0
2.685000	-0.213000	0
2.690000	-0.213000	0
2.695000	-0.213000	0
2.700000	-0.213000	0
2.705000	-0.213000	0
2.710000	-0.213000	0
2.715000	-0.213000	0
2.720000	-0.214000	0
2.725000	-0.214000	0
2.730000	-0.215000	0
2.735000	-0.216000	0
2.740000	-0.217000	0
2.745000	-0.218000	0
2.750000	-0.219000	0
2.755000	-0.219000	0
2.760000	-0.220000	0
2.765000	-0.221000	0
2.770000	-0.221000	0
2.775000	-0.222000	0
2.780000	-0.223000	0
2.785000	-0.222000	0
2.790000	-0.222000	0
2.795000	-0.222000	0
2.800000	-0.222000	0
2.805000	-0.219000	0
2.810000	-0.216000	0
2.815000	-0.213000	0
2.820000	-0.210000	0
2.825000	-0.209000	0
2.830000	-0.208000	0
2.835000	-0.208000	0
2.840000	-0.207000	0
2.845000	-0.210000	0
2.850000	-0.213000	0
2.855000	-0.216000	0
2.860000	-0.219000	0
2.865000	-0.221000	0
2.870000	-0.224000	0
2.875000	-0.227000	0
2.880000	-0.230000	0
2.885000	-0.232000	0
2.890000	-0.234000	0
2.895000	-0.236000	0
2.900000	-0.238000	0
2.905000	-0.241000	0
2.910000	-0.244000	0
2.915000	-0.247000	0
2.920000	-0.251000	0
2.925000	-0.229000	0
2.930000	-0.207000	0
2.935000	-0.185000	0
2.940000	-0.164000	0
2.945000	-0.060000	0
2.950000	0.043000	0
2.955000	0.146000	0
2.960000	0.250000	0
2.965000	0.262000	0
2.970000	0.274000	1
2.975000	0.286000	0
2.980000	0.298000	0
2.985000	0.186000	0
2.990000	0.075000	0
2.995000	-0.035000	0
3.000000	-0.146000	0
3.005000	-0.184000	0
3.010000	-0.222000	0
3.015000	-0.259000	0
3.020000	-0.297000	0
3.025000	-0.289000	0
3.030000	-0.281000	0
3.035000	-0.273000	0
3.040000	-0.266000	0
3.045000	-0.264000	0
3.050000	-0.262000	0
3.055000	-0.260000	0
3.060000	-0.259000	0
3.065000	-0.258000	0
3.070000	-0.258000	0
3.075000	-0.258000	0
3.080000	-0.258000	0
3.085000	-0.258000	0
3.090000	-0.257000	0
3.095000	-0.257000	0
3.100000	-0.257000	0
3.105000	-0.256000	0
3.110000	-0.256000	0
3.115000	-0.255000	0
3.120000	-0.255000	0
3.125000	-0.256000	0
3.130000	-0.256000	0
3.135000	-0.257000	0
3.140000	-0.258000	0
3.145000	-0.258000	0
3.150000	-0.259000	0
3.155000	-0.260000	0
3.160000	-0.261000	0
3.165000	-0.260000	0
3.170000	-0.260000	0
3.175000	-0.259000	0
3.180000	-0.258000	0
3.185000	-0.256000	0
3.190000	-0.253000	0
3.195000	-0.251000	0
3.200000	-0.248000	0
3.205000	-0.244000	0
3.210000	-0.240000	0
3.215000	-0.236000	0
3.220000	-0.233000	0
3.225000	-0.228000	0
3.230000	-0.223000	0
3.235000	-0.219000	0
3.240000	-0.214000	0
3.245000	-0.211000	0
3.250000	-0.208000	0
3.255000	-0.204000	0
3.260000	-0.201000	0
3.265000	-0.201000	0
3.270000	-0.201000	0
3.275000	-0.200000	0
3.280000	-0.200000	0
3.285000	-0.202000	0
3.290000	-0.204000	0
3.295000	-0.206000	0
3.300000	-0.209000	0
3.305000	-0.210000	0
3.310000	-0.212000	0
3.315000	-0.213000	0
3.320000	-0.215000	0
3.325000	-0.215000	0
3.330000	-0.215000	0
3.335000	-0.215000	0
3.340000	-0.216000	0
3.345000	-0.215000	0
3.350000	-0.215000	0
3.355000	-0.215000	0
3.360000	-0.215000	0
3.365000	-0.214000	0
3.370000	-0.213000	0
3.375000	-0.212000	0
3.380000	-0.212000	0
3.385000	-0.211000	0
3.390000	-0.210000	0
3.395000	-0.209000	0
3.400000	-0.208000	0
3.405000	-0.208000	0
3.410000	-0.208000	0
3.415000	-0.208000	0
3.420000	-0.209000	0
3.425000	-0.209000	0
3.430000	-0.209000	0
3.435000	-0.209000	0
3.440000	-0.209000	0
3.445000	-0.209000	0
3.450000	-0.209000	0
3.455000	-0.209000	0
3.460000	-0.209000	0
3.465000	-0.178000	0
3.470000	-0.148000	0
3.475000	-0.118000	0
3.480000	-0.088000	0
3.485000	-0.058000	0
3.490000	-0.028000	0
3.495000	0.002000	0
3.500000	0.032000	0
3.505000	0.031000	0
3.510000	0.031000	0
3.515000	0.030000	0
3.520000	0.029000	0
3.525000	0.029000	0
3.530000	0.029000	0
3.535000	0.029000	0
3.540000	0.030000	0
3.545000	0.032000	0
3.550000	0.034000	0
3.555000	0.036000	0
3.560000	0.038000	0
3.565000	0.037000	0
3.570000	0.037000	0
3.575000	0.036000	0
3.580000	0.036000	0
3.585000	0.033000	0
3.590000	0.030000	0
3.595000	0.028000	0
3.600000	0.025000	0
3.605000	0.024000	0
3.610000	0.022000	0
3.615000	0.021000	0
3.620000	0.019000	0
3.625000	0.018000	0
3.630000	0.017000	0
3.635000	0.016000	0
3.640000	0.016000	0
3.645000	0.013000	0
3.650000	0.011000	0
3.655000	0.008000	0
3.660000	0.006000	0
3.665000	0.035000	0
3.670000	0.064000	0
3.675000	0.093000	0
3.680000	0.123000	0
3.685000	0.189000	0
3.690000	0.256000	0
3.695000	0.322000	0
3.700000	0.389000	0
3.705000	0.356000	1
3.710000	0.324000	0
3.715000	0.291000	0
3.720000	0.259000	0
3.725000	0.186000	0
3.730000	0.113000	0
3.735000	0.039000	0
3.740000	-0.033000	0
3.745000	-0.033000	0
3.750000	-0.033000	0
3.755000	-0.033000	0
3.760000	-0.033000	0
3.765000	-0.026000	0
3.770000	-0.019000	0
3.775000	-0.012000	0
3.780000	-0.005000	0
3.785000	-0.004000	0
3.790000	-0.004000	0
3.795000	-0.003000	0
3.800000	-0.003000	0
3.805000	-0.002000	0
3.810000	-0.002000	0
3.815000	-0.002000	0
3.820000	-0.002000	0
3.825000	-0.001000	0
3.830000	0.000000	0
3.835000	0.001000	0
3.840000	0.002000	0
3.845000	0.002000	0
3.850000	0.002000	0
3.855000	0.003000	0
3.860000	0.003000	0
3.865000	0.003000	0
3.870000	0.002000	0
3.875000	0.002000	0
3.880000	0.002000	0
3.885000	0.002000	0
3.890000	0.002000	0
3.895000	0.003000	0
3.900000	0.003000	0
3.905000	0.005000	0
3.910000	0.007000	0
3.915000	0.008000	0
3.920000	0.010000	0
3.925000	0.013000	0
3.930000	0.016000	0
3.935000	0.019000	0
3.940000	0.022000	0
3.945000	0.025000	0
3.950000	0.028000	0
3.955000	0.031000	0
3.960000	0.035000	0
3.965000	0.037000	0
3.970000	0.040000	0
3.975000	0.043000	0
3.980000	0.046000	0
3.985000	0.048000	0
3.990000	0.050000	0
3.995000	0.052000	0
4.000000	0.054000	0
4.005000	0.053000	0
4.010000	0.053000	0
4.015000	0.052000	0
4.020000	0.051000	0
4.025000	0.049000	0
4.030000	0.047000	0
4.035000	0.045000	0
4.040000	0.043000	0
4.045000	0.042000	0
4.050000	0.041000	0
4.055000	0.040000	0
4.060000	0.040000	0
4.065000	0.039000	0
4.070000	0.039000	0
4.075000	0.039000	0
4.080000	0.039000	0
4.085000	0.039000	0
4.090000	0.040000	0
4.095000	0.040000	0
4.100000	0.041000	0
4.105000	0.042000	0
4.110000	0.043000	0
4.115000	0.044000	0
4.120000	0.045000	0
4.125000	0.046000	0
4.130000	0.046000	0
4.135000	0.047000	0
4.140000	0.048000	0
4.145000	0.048000	0
4.150000	0.049000	0
4.155000	0.049000	0
4.160000	0.050000	0
4.165000	0.050000	0
4.170000	0.050000	0
4.175000	0.050000	0
4.180000	0.050000	0
4.185000	0.050000	0
4.190000	0.049000	0
4.195000	0.049000	0
4.200000	0.049000	0
4.205000	0.048000	0
4.210000	0.048000	0
4.215000	0.047000	0
4.220000	0.047000	0
4.225000	0.046000	0
4.230000	0.046000	0
4.235000	0.045000	0
4.240000	0.044000	0
4.245000	0.043000	0
4.250000	0.043000	0
4.255000	0.042000	0
4.260000	0.042000	0
4.265000	0.042000	0
4.270000	0.042000	0
4.275000	0.043000	0
4.280000	0.043000	0
4.285000	0.045000	0
4.290000	0.046000	0
4.295000	0.048000	0
4.300000	0.049000	0
4.305000	0.050000	0
4.310000	0.051000	0
4.315000	0.052000	0
4.320000	0.053000	0
4.325000	0.051000	0
4.330000	0.050000	0
4.335000	0.048000	0
4.340000	0.047000	0
4.345000	0.044000	0
4.350000	0.042000	0
4.355000	0.039000	0
4.360000	0.037000	0
4.365000	0.035000	0
4.370000	0.034000	0
4.375000	0.033000	0
4.380000	0.032000	0
4.385000	0.032000	0
4.390000	0.032000	0
4.395000	0.032000	0
4.400000	0.032000	0
4.405000	0.032000	0
4.410000	0.032000	0
4.415000	0.033000	0
4.420000	0.033000	0
4.425000	0.075000	0
4.430000	0.118000	0
4.435000	0.160000	0
4.440000	0.202000	0
4.445000	0.222000	0
4.450000	0.243000	0
4.455000	0.263000	1
4.460000	0.284000	0
4.465000	0.231000	0
4.470000	0.178000	0
4.475000	0.125000	0
4.480000	0.072000	0
4.485000	0.042000	0
4.490000	0.013000	0
4.495000	-0.016000	0
4.500000	-0.046000	0
4.505000	-0.038000	0
4.510000	-0.031000	0
4.515000	-0.023000	0
4.520000	-0.016000	0
4.525000	-0.010000	0
4.530000	-0.005000	0
4.535000	0.000000	0
4.540000	0.006000	0
4.545000	0.005000	0
4.550000	0.005000	0
4.555000	0.005000	0
4.560000	0.005000	0
4.565000	0.006000	0
4.570000	0.006000	0
4.575000	0.007000	0
4.580000	0.007000	0
4.585000	0.008000	0
4.590000	0.010000	0
4.595000	0.011000	0
4.600000	0.012000	0
4.605000	0.012000	0
4.610000	0.012000	0
4.615000	0.012000	0
4.620000	0.012000	0
4.625000	0.011000	0
4.630000	0.010000	0
4.635000	0.009000	0
4.640000	0.008000	0
4.645000	0.009000	0
4.650000	0.011000	0
4.655000	0.013000	0
4.660000	0.015000	0
4.665000	0.019000	0
4.670000	0.024000	0
4.675000	0.028000	0
4.680000	0.032000	0
4.685000	0.036000	0
4.690000	0.039000	0
4.695000	0.043000	0
4.700000	0.046000	0
4.705000	0.049000	0
4.710000	0.052000	0
4.715000	0.055000	0
4.720000	0.058000	0
4.725000	0.061000	0
4.730000	0.064000	0
4.735000	0.067000	0
4.740000	0.071000	0
4.745000	0.071000	0
4.750000	0.072000	0
4.755000	0.072000	0
4.760000	0.073000	0
4.765000	0.070000	0
4.770000	0.068000	0
4.775000	0.065000	0
4.780000	0.063000	0
4.785000	0.061000	0
4.790000	0.060000	0
4.795000	0.058000	0
4.800000	0.056000	0
4.805000	0.056000	0
4.810000	0.056000	0
4.815000	0.056000	0
4.820000	0.056000	0
4.825000	0.056000	0
4.830000	0.056000	0
4.835000	0.056000	0
4.840000	0.057000	0
4.845000	0.058000	0
4.850000	0.059000	0
4.855000	0.060000	0
4.860000	0.061000	0
4.865000	0.061000	0
4.870000	0.062000	0
4.875000	0.062000	0
4.880000	0.063000	0
4.885000	0.062000	0
4.890000	0.062000	0
4.895000	0.061000	0
4.900000	0.061000	0
4.905000	0.060000	0
4.910000	0.059000	0
4.915000	0.059000	0
4.920000	0.058000	0
4.925000	0.058000	0
4.930000	0.058000	0
4.935000	0.058000	0
4.940000	0.058000	0
4.945000	0.058000	0
4.950000	0.058000	0
4.955000	0.058000	0
4.960000	0.058000	0
4.965000	0.058000	0
4.970000	0.057000	0
4.975000	0.057000	0
4.980000	0.057000	0
4.985000	0.056000	0
4.990000	0.056000	0
4.995000	0.055000	0
5.000000	0.055000	0
5.005000	0.054000	0
5.010000	0.053000	0
5.015000	0.052000	0
5.020000	0.051000	0
5.025000	0.051000	0
5.030000	0.051000	0
5.035000	0.051000	0
5.040000	0.052000	0
5.045000	0.055000	0
5.050000	0.059000	0
5.055000	0.062000	0
5.060000	0.066000	0
5.065000	0.068000	0
5.070000	0.069000	0
5.075000	0.071000	0
5.080000	0.072000	0
5.085000	0.069000	0
5.090000	0.067000	0
5.095000	0.064000	0
5.100000	0.061000	0
5.105000	0.057000	0
5.110000	0.054000	0
5.115000	0.050000	0
5.120000	0.047000	0
5.125000	0.044000	0
5.130000	0.041000	0
5.135000	0.038000	0
5.140000	0.035000	0
5.145000	0.034000	0
5.150000	0.034000	0
5.155000	0.033000	0
5.160000	0.033000	0
5.165000	0.031000	0
5.170000	0.030000	0
5.175000	0.028000	0
5.180000	0.027000	0
5.185000	0.067000	0
5.190000	0.108000	0
5.195000	0.149000	0
5.200000	0.190000	0
5.205000	0.218000	0
5.210000	0.246000	0
5.215000	0.274000	1
5.220000	0.302000	0
5.225000	0.250000	0
5.230000	0.198000	0
5.235000	0.146000	0
5.240000	0.094000	0
5.245000	0.057000	0
5.250000	0.020000	0
5.255000	-0.017000	0
5.260000	-0.054000	0
5.265000	-0.047000	0
5.270000	-0.040000	0
5.275000	-0.033000	0
5.280000	-0.026000	0
5.285000	-0.019000	0
5.290000	-0.013000	0
5.295000	-0.006000	0
5.300000	0.000000	0
5.305000	0.000000	0
5.310000	0.000000	0
5.315000	0.000000	0
5.320000	0.000000	0
5.325000	0.000000	0
5.330000	0.000000	0
5.335000	0.000000	0
5.340000	0.000000	0
5.345000	0.001000	0
5.350000	0.002000	0
5.355000	0.003000	0
5.360000	0.005000	0
5.365000	0.005000	0
5.370000	0.005000	0
5.375000	0.006000	0
5.380000	0.006000	0
5.385000	0.005000	0
5.390000	0.005000	0
5.395000	0.004000	0
5.400000	0.003000	0
5.405000	0.005000	0
5.410000	0.008000	0
5.415000	0.010000	0
5.420000	0.012000	0
5.425000	0.018000	0
5.430000	0.023000	0
5.435000	0.029000	0
5.440000	0.035000	0
5.445000	0.039000	0
5.450000	0.043000	0
5.455000	0.047000	0
5.460000	0.051000	0
5.465000	0.055000	0
5.470000	0.059000	0
5.475000	0.063000	0
5.480000	0.068000	0
5.485000	0.072000	0
5.490000	0.076000	0
5.495000	0.080000	0
5.500000	0.084000	0
5.505000	0.083000	0
5.510000	0.083000	0
5.515000	0.083000	0
5.520000	0.083000	0
5.525000	0.080000	0
5.530000	0.078000	0
5.535000	0.075000	0
5.540000	0.073000	0
5.545000	0.070000	0
5.550000	0.067000	0
5.555000	0.064000	0
5.560000	0.061000	0
5.565000	0.059000	0
5.570000	0.058000	0
5.575000	0.057000	0
5.580000	0.056000	0
5.585000	0.056000	0
5.590000	0.057000	0
5.595000	0.057000	0
5.600000	0.058000	0
5.605000	0.059000	0
5.610000	0.061000	0
5.615000	0.062000	0
5.620000	0.064000	0
5.625000	0.065000	0
5.630000	0.066000	0
5.635000	0.067000	0
5.640000	0.068000	0
5.645000	0.068000	0
5.650000	0.069000	0
5.655000	0.069000	0
5.660000	0.069000	0
5.665000	0.069000	0
5.670000	0.068000	0
5.675000	0.068000	0
5.680000	0.068000	0
5.685000	0.067000	0
5.690000	0.067000	0
5.695000	0.066000	0
5.700000	0.066000	0
5.705000	0.065000	0
5.710000	0.065000	0
5.715000	0.065000	0
5.720000	0.065000	0
5.725000	0.064000	0
5.730000	0.063000	0
5.735000	0.062000	0
5.740000	0.061000	0
5.745000	0.060000	0
5.750000	0.059000	0
5.755000	0.058000	0
5.760000	0.057000	0
5.765000	0.056000	0
5.770000	0.056000	0
5.775000	0.055000	0
5.780000	0.055000	0
5.785000	0.054000	0
5.790000	0.053000	0
5.795000	0.052000	0
5.800000	0.052000	0
5.805000	0.051000	0
5.810000	0.051000	0
5.815000	0.050000	0
5.820000	0.050000	0
5.825000	0.050000	0
5.830000	0.049000	0
5.835000	0.049000	0
5.840000	0.049000	0
5.845000	0.048000	0
5.850000	0.047000	0
5.855000	0.046000	0
5.860000	0.045000	0
5.865000	0.046000	0
5.870000	0.047000	0
5.875000	0.047000	0
5.880000	0.048000	0
5.885000	0.048000	0
5.890000	0.048000	0
5.895000	0.048000	0
5.900000	0.048000	0
5.905000	0.046000	0
5.910000	0.045000	0
5.915000	0.043000	0
5.920000	0.042000	0
5.925000	0.042000	0
5.930000	0.042000	0
5.935000	0.042000	0
5.940000	0.043000	0
5.945000	0.044000	0
5.950000	0.045000	0
5.955000	0.046000	0
5.960000	0.047000	0
5.965000	0.047000	0
5.970000	0.048000	0
5.975000	0.048000	0
5.980000	0.049000	0
5.985000	0.050000	0
5.990000	0.052000	0
5.995000	0.053000	0
6.000000	0.055000	0
6.005000	0.055000	0
6.010000	0.054000	0
6.015000	0.054000	0
6.020000	0.053000	0
6.025000	0.051000	0
6.030000	0.048000	0
6.035000	0.046000	0
6.040000	0.044000	0
6.045000	0.042000	0
6.050000	0.041000	0
6.055000	0.039000	0
6.060000	0.038000	0
6.065000	0.036000	0
6.070000	0.035000	0
6.075000	0.033000	0
6.080000	0.032000	0
6.085000	0.028000	0
6.090000	0.025000	0
6.095000	0.022000	0
6.100000	0.019000	0
6.105000	0.042000	0
6.110000	0.064000	0
6.115000	0.087000	0
6.120000	0.109000	0
6.125000	0.159000	0
6.130000	0.208000	0
6.135000	0.258000	0
6.140000	0.308000	0
6.145000	0.282000	1
6.150000	0.256000	0
6.155000	0.230000	0
6.160000	0.205000	0
6.165000	0.143000	0
6.170000	0.082000	0
6.175000	0.020000	0
6.180000	-0.040000	0
6.185000	-0.043000	0
6.190000	-0.045000	0
6.195000	-0.048000	0
6.200000	-0.051000	0
6.205000	-0.040000	0
6.210000	-0.029000	0
6.215000	-0.019000	0
6.220000	-0.008000	0
6.225000	-0.007000	0
6.230000	-0.005000	0
6.235000	-0.004000	0
6.240000	-0.002000	0
6.245000	-0.002000	0
6.250000	-0.002000	0
6.255000	-0.002000	0
6.260000	-0.003000	0
6.265000	-0.002000	0
6.270000	-0.001000	0
6.275000	0.000000	0
6.280000	0.000000	0
6.285000	0.000000	0
6.290000	0.000000	0
6.295000	0.000000	0
6.300000	0.000000	0
6.305000	0.000000	0
6.310000	-0.001000	0
6.315000	-0.002000	0
6.320000	-0.003000	0
6.325000	-0.001000	0
6.330000	0.001000	0
6.335000	0.003000	0
6.340000	0.005000	0
6.345000	0.011000	0
6.350000	0.016000	0
6.355000	0.022000	0
6.360000	0.027000	0
6.365000	0.032000	0
6.370000	0.037000	0
6.375000	0.041000	0
6.380000	0.046000	0
6.385000	0.049000	0
6.390000	0.053000	0
6.395000	0.056000	0
6.400000	0.059000	0
6.405000	0.063000	0
6.410000	0.066000	0
6.415000	0.070000	0
6.420000	0.074000	0
6.425000	0.076000	0
6.430000	0.079000	0
6.435000	0.081000	0
6.440000	0.084000	0
6.445000	0.081000	0
6.450000	0.078000	0
6.455000	0.075000	0
6.460000	0.072000	0
6.465000	0.065000	0
6.470000	0.059000	0
6.475000	0.053000	0
6.480000	0.047000	0
6.485000	0.044000	0
6.490000	0.041000	0
6.495000	0.038000	0
6.500000	0.036000	0
6.505000	0.035000	0
6.510000	0.034000	0
6.515000	0.033000	0
6.520000	0.033000	0
6.525000	0.033000	0
6.530000	0.033000	0
6.535000	0.033000	0
6.540000	0.034000	0
6.545000	0.035000	0
6.550000	0.037000	0
6.555000	0.038000	0
6.560000	0.040000	0
6.565000	0.040000	0
6.570000	0.041000	0
6.575000	0.041000	0
6.580000	0.042000	0
6.585000	0.041000	0
6.590000	0.040000	0
6.595000	0.040000	0
6.600000	0.039000	0
6.605000	0.039000	0
6.610000	0.040000	0
6.615000	0.040000	0
6.620000	0.040000	0
6.625000	0.041000	0
6.630000	0.041000	0
6.635000	0.042000	0
6.640000	0.043000	0
6.645000	0.043000	0
6.650000	0.043000	0
6.655000	0.043000	0
6.660000	0.043000	0
6.665000	0.045000	0
6.670000	0.047000	0
6.675000	0.049000	0
6.680000	0.051000	0
6.685000	0.053000	0
6.690000	0.056000	0
6.695000	0.058000	0
6.700000	0.061000	0
6.705000	0.060000	0
6.710000	0.059000	0
6.715000	0.058000	0
6.720000	0.057000	0
6.725000	0.052000	0
6.730000	0.048000	0
6.735000	0.043000	0
6.740000	0.039000	0
6.745000	0.036000	0
6.750000	0.033000	0
6.755000	0.029000	0
6.760000	0.026000	0
6.765000	0.026000	0
6.770000	0.026000	0
6.775000	0.026000	0
6.780000	0.026000	0
6.785000	0.023000	0
6.790000	0.021000	0
6.795000	0.019000	0
6.800000	0.017000	0
6.805000	0.029000	0
6.810000	0.042000	0
6.815000	0.055000	0
6.820000	0.068000	0
6.825000	0.125000	0
6.830000	0.182000	0
6.835000	0.239000	0
6.840000	0.296000	0
6.845000	0.291000	0
6.850000	0.286000	1
6.855000	0.281000	0
6.860000	0.276000	0
6.865000	0.209000	0
6.870000	0.142000	0
6.875000	0.075000	0
6.880000	0.008000	0
6.885000	-0.004000	0
6.890000	-0.018000	0
6.895000	-0.031000	0
6.900000	-0.045000	0
6.905000	-0.034000	0
6.910000	-0.024000	0
6.915000	-0.014000	0
6.920000	-0.004000	0
6.925000	-0.001000	0
6.930000	0.002000	0
6.935000	0.006000	0
6.940000	0.009000	0
6.945000	0.009000	0
6.950000	0.009000	0
6.955000	0.009000	0
6.960000	0.010000	0
6.965000	0.011000	0
6.970000	0.012000	0
6.975000	0.013000	0
6.980000	0.014000	0
6.985000	0.016000	0
6.990000	0.017000	0
6.995000	0.019000	0
7.000000	0.020000	0
7.005000	0.019000	0
7.010000	0.017000	0
7.015000	0.016000	0
7.020000	0.015000	0
7.025000	0.013000	0
7.030000	0.012000	0
7.035000	0.010000	0
7.040000	0.009000	0
7.045000	0.011000	0
7.050000	0.013000	0
7.055000	0.015000	0
7.060000	0.017000	0
7.065000	0.022000	0
7.070000	0.026000	0
7.075000	0.031000	0
7.080000	0.035000	0
7.085000	0.040000	0
7.090000	0.044000	0
7.095000	0.049000	0
7.100000	0.053000	0
7.105000	0.058000	0
7.110000	0.062000	0
7.115000	0.067000	0
7.120000	0.072000	0
7.125000	0.076000	0
7.130000	0.080000	0
7.135000	0.084000	0
7.140000	0.089000	0
7.145000	0.089000	0
7.150000	0.090000	0
7.155000	0.091000	0
7.160000	0.092000	0
7.165000	0.089000	0
7.170000	0.086000	0
7.175000	0.083000	0
7.180000	0.080000	0
7.185000	0.078000	0
7.190000	0.076000	0
7.195000	0.074000	0
7.200000	0.072000	0
7.205000	0.072000	0
7.210000	0.071000	0
7.215000	0.071000	0
7.220000	0.071000	0
7.225000	0.071000	0
7.230000	0.072000	0
7.235000	0.072000	0
7.240000	0.073000	0
7.245000	0.075000	0
7.250000	0.076000	0
7.255000	0.078000	0
7.260000	0.080000	0
7.265000	0.081000	0
7.270000	0.082000	0
7.275000	0.083000	0
7.280000	0.084000	0
7.285000	0.084000	0
7.290000	0.084000	0
7.295000	0.085000	0
7.300000	0.085000	0
7.305000	0.085000	0
7.310000	0.085000	0
7.315000	0.085000	0
7.320000	0.086000	0
7.325000	0.086000	0
7.330000	0.086000	0
7.335000	0.086000	0
7.340000	0.086000	0
7.345000	0.085000	0
7.350000	0.084000	0
7.355000	0.084000	0
7.360000	0.083000	0
7.365000	0.082000	0
7.370000	0.081000	0
7.375000	0.080000	0
7.380000	0.079000	0
7.385000	0.078000	0
7.390000	0.078000	0
7.395000	0.077000	0
7.400000	0.077000	0
7.405000	0.077000	0
7.410000	0.077000	0
7.415000	0.077000	0
7.420000	0.077000	0
7.425000	0.077000	0
7.430000	0.077000	0
7.435000	0.077000	0
7.440000	0.078000	0
7.445000	0.078000	0
7.450000	0.078000	0
7.455000	0.078000	0
7.460000	0.078000	0
7.465000	0.077000	0
7.470000	0.077000	0
7.475000	0.076000	0
7.480000	0.076000	0
7.485000	0.075000	0
7.490000	0.074000	0
7.495000	0.073000	0
7.500000	0.072000	0
7.505000	0.071000	0
7.510000	0.070000	0
7.515000	0.070000	0
7.520000	0.069000	0
7.525000	0.069000	0
7.530000	0.070000	0
7.535000	0.070000	0
7.540000	0.070000	0
7.545000	0.071000	0
7.550000	0.072000	0
7.555000	0.073000	0
7.560000	0.074000	0
7.565000	0.076000	0
7.570000	0.078000	0
7.575000	0.080000	0
7.580000	0.083000	0
7.585000	0.082000	0
7.590000	0.082000	0
7.595000	0.082000	0
7.600000	0.082000	0
7.605000	0.080000	0
7.610000	0.079000	0
7.615000	0.078000	0
7.620000	0.077000	0
7.625000	0.076000	0
7.630000	0.075000	0
7.635000	0.074000	0
7.640000	0.073000	0
7.645000	0.071000	0
7.650000	0.069000	0
7.655000	0.067000	0
7.660000	0.066000	0
7.665000	0.062000	0
7.670000	0.059000	0
7.675000	0.056000	0
7.680000	0.053000	0
7.685000	0.104000	0
7.690000	0.154000	0
7.695000	0.205000	0
7.700000	0.255000	0
7.705000	0.290000	0
7.710000	0.325000	0
7.715000	0.360000	1
7.720000	0.396000	0
7.725000	0.334000	0
7.730000	0.272000	0
7.735000	0.210000	0
7.740000	0.148000	0
7.745000	0.104000	0
7.750000	0.060000	0
7.755000	0.016000	0
7.760000	-0.028000	0
7.765000	-0.021000	0
7.770000	-0.015000	0
7.775000	-0.008000	0
7.780000	-0.002000	0
7.785000	0.005000	0
7.790000	0.012000	0
7.795000	0.019000	0
7.800000	0.026000	0
7.805000	0.025000	0
7.810000	0.025000	0
7.815000	0.025000	0
7.820000	0.025000	0
7.825000	0.025000	0
7.830000	0.026000	0
7.835000	0.026000	0
7.840000	0.027000	0
7.845000	0.028000	0
7.850000	0.029000	0
7.855000	0.029000	0
7.860000	0.030000	0
7.865000	0.030000	0
7.870000	0.029000	0
7.875000	0.029000	0
7.880000	0.028000	0
7.885000	0.027000	0
7.890000	0.026000	0
7.895000	0.025000	0
7.900000	0.024000	0
7.905000	0.025000	0
7.910000	0.025000	0
7.915000	0.026000	0
7.920000	0.027000	0
7.925000	0.030000	0
7.930000	0.034000	0
7.935000	0.037000	0
7.940000	0.041000	0
7.945000	0.044000	0
7.950000	0.048000	0
7.955000	0.052000	0
7.960000	0.056000	0
7.965000	0.060000	0
7.970000	0.065000	0
7.975000	0.070000	0
7.980000	0.075000	0
7.985000	0.080000	0
7.990000	0.085000	0
7.995000	0.090000	0
8.000000	0.095000	0
8.005000	0.097000	0
8.010000	0.099000	0
8.015000	0.101000	0
8.020000	0.103000	0
8.025000	0.100000	0
8.030000	0.098000	0
8.035000	0.096000	0
8.040000	0.094000	0
8.045000	0.090000	0
8.050000	0.087000	0
8.055000	0.083000	0
8.060000	0.080000	0
8.065000	0.079000	0
8.070000	0.078000	0
8.075000	0.077000	0
8.080000	0.076000	0
8.085000	0.076000	0
8.090000	0.076000	0
8.095000	0.077000	0
8.100000	0.077000	0
8.105000	0.080000	0
8.110000	0.083000	0
8.115000	0.085000	0
8.120000	0.088000	0
8.125000	0.090000	0
8.130000	0.092000	0
8.135000	0.094000	0
8.140000	0.097000	0
8.145000	0.096000	0
8.150000	0.095000	0
8.155000	0.094000	0
8.160000	0.094000	0
8.165000	0.093000	0
8.170000	0.092000	0
8.175000	0.091000	0
8.180000	0.090000	0
8.185000	0.089000	0
8.190000	0.089000	0
8.195000	0.089000	0
8.200000	0.089000	0
8.205000	0.088000	0
8.210000	0.087000	0
8.215000	0.086000	0
8.220000	0.085000	0
8.225000	0.084000	0
8.230000	0.084000	0
8.235000	0.083000	0
8.240000	0.082000	0
8.245000	0.085000	0
8.250000	0.088000	0
8.255000	0.091000	0
8.260000	0.095000	0
8.265000	0.096000	0
8.270000	0.097000	0
8.275000	0.099000	0
8.280000	0.100000	0
8.285000	0.097000	0
8.290000	0.095000	0
8.295000	0.092000	0
8.300000	0.090000	0
8.305000	0.085000	0
8.310000	0.081000	0
8.315000	0.076000	0
8.320000	0.072000	0
8.325000	0.069000	0
8.330000	0.066000	0
8.335000	0.063000	0
8.340000	0.060000	0
8.345000	0.060000	0
8.350000	0.060000	0
8.355000	0.059000	0
8.360000	0.059000	0
8.365000	0.059000	0
8.370000	0.060000	0
8.375000	0.060000	0
8.380000	0.060000	0
8.385000	0.118000	0
8.390000	0.176000	0
8.395000	0.234000	0
8.400000	0.292000	0
8.405000	0.315000	0
8.410000	0.338000	0
8.415000	0.361000	1
8.420000	0.384000	0
8.425000	0.313000	0
8.430000	0.242000	0
8.435000	0.171000	0
8.440000	0.100000	0
8.445000	0.067000	0
8.450000	0.035000	0
8.455000	0.002000	0
8.460000	-0.030000	0
8.465000	-0.021000	0
8.470000	-0.013000	0
8.475000	-0.004000	0
8.480000	0.003000	0
8.485000	0.008000	0
8.490000	0.013000	0
8.495000	0.017000	0
8.500000	0.022000	0
8.505000	0.022000	0
8.510000	0.021000	0
8.515000	0.021000	0
8.520000	0.021000	0
8.525000	0.020000	0
8.530000	0.020000	0
8.535000	0.020000	0
8.540000	0.020000	0
8.545000	0.021000	0
8.550000	0.021000	0
8.555000	0.022000	0
8.560000	0.023000	0
8.565000	0.022000	0
8.570000	0.022000	0
8.575000	0.022000	0
8.580000	0.022000	0
8.585000	0.020000	0
8.590000	0.019000	0
8.595000	0.018000	0
8.600000	0.017000	0
8.605000	0.018000	0
8.610000	0.019000	0
8.615000	0.020000	0
8.620000	0.021000	0
8.625000	0.025000	0
8.630000	0.029000	0
8.635000	0.033000	0
8.640000	0.038000	0
8.645000	0.042000	0
8.650000	0.047000	0
8.655000	0.052000	0
8.660000	0.057000	0
8.665000	0.060000	0
8.670000	0.064000	0
8.675000	0.068000	0
8.680000	0.072000	0
8.685000	0.075000	0
8.690000	0.079000	0
8.695000	0.083000	0
8.700000	0.087000	0
8.705000	0.088000	0
8.710000	0.089000	0
8.715000	0.090000	0
8.720000	0.091000	0
8.725000	0.088000	0
8.730000	0.086000	0
8.735000	0.083000	0
8.740000	0.081000	0
8.745000	0.080000	0
8.750000	0.078000	0
8.755000	0.077000	0
8.760000	0.075000	0
8.765000	0.074000	0
8.770000	0.074000	0
8.775000	0.073000	0
8.780000	0.073000	0
8.785000	0.073000	0
8.790000	0.073000	0
8.795000	0.073000	0
8.800000	0.073000	0
8.805000	0.075000	0
8.810000	0.077000	0
8.815000	0.078000	0
8.820000	0.080000	0
8.825000	0.082000	0
8.830000	0.085000	0
8.835000	0.087000	0
8.840000	0.089000	0
8.845000	0.090000	0
8.850000	0.091000	0
8.855000	0.092000	0
8.860000	0.093000	0
8.865000	0.092000	0
8.870000	0.092000	0
8.875000	0.091000	0
8.880000	0.090000	0
8.885000	0.089000	0
8.890000	0.088000	0
8.895000	0.087000	0
8.900000	0.086000	0
8.905000	0.086000	0
8.910000	0.085000	0
8.915000	0.085000	0
8.920000	0.084000	0
8.925000	0.083000	0
8.930000	0.082000	0
8.935000	0.081000	0
8.940000	0.081000	0
8.945000	0.080000	0
8.950000	0.080000	0
8.955000	0.079000	0
8.960000	0.079000	0
8.965000	0.078000	0
8.970000	0.078000	0
8.975000	0.078000	0
8.980000	0.078000	0
8.985000	0.077000	0
8.990000	0.077000	0
8.995000	0.077000	0
9.000000	0.077000	0
9.005000	0.077000	0
9.010000	0.077000	0
9.015000	0.077000	0
9.020000	0.077000	0
9.025000	0.078000	0
9.030000	0.078000	0
9.035000	0.079000	0
9.040000	0.079000	0
9.045000	0.080000	0
9.050000	0.080000	0
9.055000	0.081000	0
9.060000	0.082000	0
9.065000	0.085000	0
9.070000	0.089000	0
9.075000	0.092000	0
9.080000	0.096000	0
9.085000	0.096000	0
9.090000	0.097000	0
9.095000	0.097000	0
9.100000	0.097000	0
9.105000	0.093000	0
9.110000	0.089000	0
9.115000	0.085000	0
9.120000	0.081000	0
9.125000	0.078000	0
9.130000	0.074000	0
9.135000	0.071000	0
9.140000	0.067000	0
9.145000	0.065000	0
9.150000	0.063000	0
9.155000	0.060000	0
9.160000	0.058000	0
9.165000	0.057000	0
9.170000	0.056000	0
9.175000	0.055000	0
9.180000	0.055000	0
9.185000	0.061000	0
9.190000	0.068000	0
9.195000	0.075000	0
9.200000	0.082000	0
9.205000	0.144000	0
9.210000	0.206000	0
9.215000	0.268000	0
9.220000	0.330000	0
9.225000	0.333000	0
9.230000	0.336000	1
9.235000	0.339000	0
9.240000	0.342000	0
9.245000	0.265000	0
9.250000	0.189000	0
9.255000	0.112000	0
9.260000	0.036000	0
9.265000	0.017000	0
9.270000	-0.001000	0
9.275000	-0.020000	0
9.280000	-0.039000	0
9.285000	-0.028000	0
9.290000	-0.017000	0
9.295000	-0.007000	0
9.300000	0.003000	0
9.305000	0.007000	0
9.310000	0.010000	0
9.315000	0.014000	0
9.320000	0.017000	0
9.325000	0.017000	0
9.330000	0.016000	0
9.335000	0.016000	0
9.340000	0.015000	0
9.345000	0.016000	0
9.350000	0.016000	0
9.355000	0.017000	0
9.360000	0.017000	0
9.365000	0.018000	0
9.370000	0.020000	0
9.375000	0.021000	0
9.380000	0.023000	0
9.385000	0.023000	0
9.390000	0.023000	0
9.395000	0.023000	0
9.400000	0.023000	0
9.405000	0.023000	0
9.410000	0.023000	0
9.415000	0.024000	0
9.420000	0.024000	0
9.425000	0.028000	0
9.430000	0.032000	0
9.435000	0.036000	0
9.440000	0.040000	0
9.445000	0.045000	0
9.450000	0.050000	0
9.455000	0.056000	0
9.460000	0.061000	0
9.465000	0.064000	0
9.470000	0.068000	0
9.475000	0.071000	0
9.480000	0.075000	0
9.485000	0.078000	0
9.490000	0.082000	0
9.495000	0.085000	0
9.500000	0.089000	0
9.505000	0.092000	0
9.510000	0.095000	0
9.515000	0.098000	0
9.520000	0.101000	0
9.525000	0.100000	0
9.530000	0.099000	0
9.535000	0.098000	0
9.540000	0.097000	0
9.545000	0.093000	0
9.550000	0.090000	0
9.555000	0.086000	0
9.560000	0.083000	0
9.565000	0.081000	0
9.570000	0.079000	0
9.575000	0.077000	0
9.580000	0.076000	0
9.585000	0.075000	0
9.590000	0.075000	0
9.595000	0.075000	0
9.600000	0.075000	0
9.605000	0.076000	0
9.610000	0.076000	0
9.615000	0.077000	0
9.620000	0.077000	0
9.625000	0.078000	0
9.630000	0.079000	0
9.635000	0.080000	0
9.640000	0.081000	0
9.645000	0.082000	0
9.650000	0.083000	0
9.655000	0.084000	0
9.660000	0.085000	0
9.665000	0.085000	0
9.670000	0.085000	0
9.675000	0.085000	0
9.680000	0.085000	0
9.685000	0.084000	0
9.690000	0.082000	0
9.695000	0.081000	0
9.700000	0.080000	0
9.705000	0.078000	0
9.710000	0.077000	0
9.715000	0.076000	0
9.720000	0.075000	0
9.725000	0.074000	0
9.730000	0.073000	0
9.735000	0.072000	0
9.740000	0.071000	0
9.745000	0.070000	0
9.750000	0.069000	0
9.755000	0.068000	0
9.760000	0.067000	0
9.765000	0.067000	0
9.770000	0.067000	0
9.775000	0.067000	0
9.780000	0.067000	0
9.785000	0.066000	0
9.790000	0.066000	0
9.795000	0.066000	0
9.800000	0.066000	0
9.805000	0.065000	0
9.810000	0.064000	0
9.815000	0.064000	0
9.820000	0.063000	0
9.825000	0.063000	0
9.830000	0.063000	0
9.835000	0.063000	0
9.840000	0.063000	0
9.845000	0.063000	0
9.850000	0.064000	0
9.855000	0.064000	0
9.860000	0.065000	0
9.865000	0.065000	0
9.870000	0.065000	0
9.875000	0.065000	0
9.880000	0.066000	0
9.885000	0.067000	0
9.890000	0.069000	0
9.895000	0.070000	0
9.900000	0.072000	0
9.905000	0.075000	0
9.910000	0.078000	0
9.915000	0.082000	0
9.920000	0.085000	0
9.925000	0.083000	0
9.930000	0.082000	0
9.935000	0.080000	0
9.940000	0.078000	0
9.945000	0.074000	0
9.950000	0.069000	0
9.955000	0.065000	0
9.960000	0.061000	0
9.965000	0.058000	0
9.970000	0.056000	0
9.975000	0.053000	0
9.980000	0.051000	0
9.985000	0.049000	0
9.990000	0.048000	0
9.995000	0.047000	0
10.000000	0.046000	0
10.005000	0.043000	0
10.010000	0.040000	0
10.015000	0.037000	0
10.020000	0.034000	0
10.025000	0.073000	0
10.030000	0.111000	0
10.035000	0.150000	0
10.040000	0.189000	0
10.045000	0.239000	0
10.050000	0.289000	0
10.055000	0.339000	0
10.060000	0.389000	1
10.065000	0.341000	0
10.070000	0.293000	0
10.075000	0.245000	0
10.080000	0.198000	0
10.085000	0.137000	0
10.090000	0.077000	0
10.095000	0.016000	0
10.100000	-0.043000	0
10.105000	-0.040000	0
10.110000	-0.037000	0
10.115000	-0.034000	0
10.120000	-0.031000	0
10.125000	-0.023000	0
10.130000	-0.015000	0
10.135000	-0.007000	0
10.140000	0.000000	0
10.145000	0.001000	0
10.150000	0.001000	0
10.155000	0.002000	0
10.160000	0.003000	0
10.165000	0.003000	0
10.170000	0.003000	0
10.175000	0.004000	0
10.180000	0.004000	0
10.185000	0.005000	0
10.190000	0.006000	0
10.195000	0.007000	0
10.200000	0.008000	0
10.205000	0.009000	0
10.210000	0.010000	0
10.215000	0.011000	0
10.220000	0.012000	0
10.225000	0.011000	0
10.230000	0.011000	0
10.235000	0.010000	0
10.240000	0.010000	0
10.245000	0.012000	0
10.250000	0.014000	0
10.255000	0.016000	0
10.260000	0.018000	0
10.265000	0.023000	0
10.270000	0.028000	0
10.275000	0.033000	0
10.280000	0.038000	0
10.285000	0.042000	0
10.290000	0.046000	0
10.295000	0.049000	0
10.300000	0.053000	0
10.305000	0.056000	0
10.310000	0.059000	0
10.315000	0.061000	0
10.320000	0.064000	0
10.325000	0.068000	0
10.330000	0.072000	0
10.335000	0.075000	0
10.340000	0.079000	0
10.345000	0.081000	0
10.350000	0.082000	0
10.355000	0.084000	0
10.360000	0.086000	0
10.365000	0.083000	0
10.370000	0.081000	0
10.375000	0.078000	0
10.380000	0.076000	0
10.385000	0.072000	0
10.390000	0.069000	0
10.395000	0.065000	0
10.400000	0.062000	0
10.405000	0.059000	0
10.410000	0.057000	0
10.415000	0.054000	0
10.420000	0.052000	0
10.425000	0.052000	0
10.430000	0.051000	0
10.435000	0.051000	0
10.440000	0.051000	0
10.445000	0.052000	0
10.450000	0.053000	0
10.455000	0.054000	0
10.460000	0.055000	0
10.465000	0.057000	0
10.470000	0.058000	0
10.475000	0.060000	0
10.480000	0.061000	0
10.485000	0.062000	0
10.490000	0.063000	0
10.495000	0.064000	0
10.500000	0.065000	0
10.505000	0.064000	0
10.510000	0.063000	0
10.515000	0.062000	0
10.520000	0.062000	0
10.525000	0.060000	0
10.530000	0.059000	0
10.535000	0.058000	0
10.540000	0.057000	0
10.545000	0.056000	0
10.550000	0.056000	0
10.555000	0.055000	0
10.560000	0.054000	0
10.565000	0.052000	0
10.570000	0.051000	0
10.575000	0.049000	0
10.580000	0.048000	0
10.585000	0.046000	0
10.590000	0.044000	0
10.595000	0.042000	0
10.600000	0.040000	0
10.605000	0.039000	0
10.610000	0.037000	0
10.615000	0.036000	0
10.620000	0.035000	0
10.625000	0.034000	0
10.630000	0.034000	0
10.635000	0.033000	0
10.640000	0.033000	0
10.645000	0.033000	0
10.650000	0.033000	0
10.655000	0.033000	0
10.660000	0.034000	0
10.665000	0.034000	0
10.670000	0.035000	0
10.675000	0.036000	0
10.680000	0.037000	0
10.685000	0.037000	0
10.690000	0.037000	0
10.695000	0.037000	0
10.700000	0.037000	0
10.705000	0.037000	0
10.710000	0.037000	0
10.715000	0.037000	0
10.720000	0.037000	0
10.725000	0.038000	0
10.730000	0.039000	0
10.735000	0.040000	0
10.740000	0.041000	0
10.745000	0.041000	0
10.750000	0.042000	0
10.755000	0.042000	0
10.760000	0.043000	0
10.765000	0.043000	0
10.770000	0.043000	0
10.775000	0.043000	0
10.780000	0.044000	0
10.785000	0.045000	0
10.790000	0.046000	0
10.795000	0.048000	0
10.800000	0.049000	0
10.805000	0.050000	0
10.810000	0.052000	0
10.815000	0.053000	0
10.820000	0.055000	0
10.825000	0.056000	0
10.830000	0.058000	0
10.835000	0.059000	0
10.840000	0.061000	0
10.845000	0.061000	0
10.850000	0.061000	0
10.855000	0.061000	0
10.860000	0.061000	0
10.865000	0.060000	0
10.870000	0.058000	0
10.875000	0.057000	0
10.880000	0.055000	0
10.885000	0.054000	0
10.890000	0.052000	0
10.895000	0.051000	0
10.900000	0.049000	0
10.905000	0.048000	0
10.910000	0.047000	0
10.915000	0.045000	0
10.920000	0.044000	0
10.925000	0.042000	0
10.930000	0.040000	0
10.935000	0.038000	0
10.940000	0.036000	0
10.945000	0.079000	0
10.950000	0.123000	0
10.955000	0.167000	0
10.960000	0.211000	0
10.965000	0.242000	0
10.970000	0.274000	0
10.975000	0.306000	0
10.980000	0.338000	1
10.985000	0.284000	0
10.990000	0.230000	0
10.995000	0.175000	0
11.000000	0.121000	0
11.005000	0.082000	0
11.010000	0.043000	0
11.015000	0.003000	0
11.020000	-0.035000	0
11.025000	-0.028000	0
11.030000	-0.021000	0
11.035000	-0.013000	0
11.040000	-0.006000	0
11.045000	0.000000	0
11.050000	0.007000	0
11.055000	0.014000	0
11.060000	0.021000	0
11.065000	0.022000	0
11.070000	0.023000	0
11.075000	0.023000	0
11.080000	0.024000	0
11.085000	0.024000	0
11.090000	0.024000	0
11.095000	0.024000	0
11.100000	0.025000	0
11.105000	0.026000	0
11.110000	0.027000	0
11.115000	0.028000	0
11.120000	0.029000	0
11.125000	0.029000	0
11.130000	0.029000	0
11.135000	0.029000	0
11.140000	0.029000	0
11.145000	0.028000	0
11.150000	0.028000	0
11.155000	0.027000	0
11.160000	0.027000	0
11.165000	0.028000	0
11.170000	0.030000	0
11.175000	0.032000	0
11.180000	0.034000	0
11.185000	0.037000	0
11.190000	0.041000	0
11.195000	0.045000	0
11.200000	0.049000	0
11.205000	0.054000	0
11.210000	0.060000	0
11.215000	0.065000	0
11.220000	0.071000	0
11.225000	0.075000	0
11.230000	0.080000	0
11.235000	0.085000	0
11.240000	0.090000	0
11.245000	0.094000	0
11.250000	0.098000	0
11.255000	0.102000	0
11.260000	0.106000	0
11.265000	0.107000	0
11.270000	0.109000	0
11.275000	0.111000	0
11.280000	0.113000	0
11.285000	0.111000	0
11.290000	0.110000	0
11.295000	0.108000	0
11.300000	0.106000	0
11.305000	0.103000	0
11.310000	0.100000	0
11.315000	0.097000	0
11.320000	0.094000	0
11.325000	0.091000	0
11.330000	0.089000	0
11.335000	0.087000	0
11.340000	0.085000	0
11.345000	0.084000	0
11.350000	0.084000	0
11.355000	0.084000	0
11.360000	0.084000	0
11.365000	0.085000	0
11.370000	0.086000	0
11.375000	0.087000	0
11.380000	0.089000	0
11.385000	0.089000	0
11.390000	0.089000	0
11.395000	0.089000	0
11.400000	0.090000	0
11.405000	0.090000	0
11.410000	0.090000	0
11.415000	0.090000	0
11.420000	0.090000	0
11.425000	0.090000	0
11.430000	0.091000	0
11.435000	0.091000	0
11.440000	0.092000	0
11.445000	0.092000	0
11.450000	0.092000	0
11.455000	0.092000	0
11.460000	0.092000	0
11.465000	0.091000	0
11.470000	0.091000	0
11.475000	0.090000	0
11.480000	0.090000	0
11.485000	0.090000	0
11.490000	0.090000	0
11.495000	0.090000	0
11.500000	0.091000	0
11.505000	0.094000	0
11.510000	0.097000	0
11.515000	0.100000	0
11.520000	0.104000	0
11.525000	0.104000	0
11.530000	0.104000	0
11.535000	0.104000	0
11.540000	0.104000	0
11.545000	0.099000	0
11.550000	0.095000	0
11.555000	0.090000	0
11.560000	0.086000	0
11.565000	0.082000	0
11.570000	0.078000	0
11.575000	0.074000	0
11.580000	0.070000	0
11.585000	0.068000	0
11.590000	0.066000	0
11.595000	0.064000	0
11.600000	0.063000	0
11.605000	0.062000	0
11.610000	0.061000	0
11.615000	0.060000	0
11.620000	0.060000	0
11.625000	0.064000	0
11.630000	0.069000	0
11.635000	0.074000	0
11.640000	0.079000	0
11.645000	0.126000	0
11.650000	0.172000	0
11.655000	0.219000	0
11.660000	0.266000	0
11.665000	0.277000	0
11.670000	0.288000	0
11.675000	0.299000	1
11.680000	0.310000	0
11.685000	0.251000	0
11.690000	0.192000	0
11.695000	0.133000	0
11.700000	0.074000	0
11.705000	0.049000	0
11.710000	0.024000	0
11.715000	0.000000	0
11.720000	-0.024000	0
11.725000	-0.015000	0
11.730000	-0.005000	0
11.735000	0.003000	0
11.740000	0.013000	0
11.745000	0.017000	0
11.750000	0.021000	0
11.755000	0.025000	0
11.760000	0.029000	0
11.765000	0.028000	0
11.770000	0.027000	0
11.775000	0.026000	0
11.780000	0.026000	0
11.785000	0.025000	0
11.790000	0.025000	0
11.795000	0.025000	0
11.800000	0.025000	0
11.805000	0.025000	0
11.810000	0.026000	0
11.815000	0.026000	0
11.820000	0.027000	0
11.825000	0.026000	0
11.830000	0.025000	0
11.835000	0.024000	0
11.840000	0.023000	0
11.845000	0.021000	0
11.850000	0.020000	0
11.855000	0.018000	0
11.860000	0.016000	0
11.865000	0.017000	0
11.870000	0.018000	0
11.875000	0.018000	0
11.880000	0.019000	0
11.885000	0.023000	0
11.890000	0.027000	0
11.895000	0.031000	0
11.900000	0.035000	0
11.905000	0.038000	0
11.910000	0.042000	0
11.915000	0.046000	0
11.920000	0.050000	0
11.925000	0.053000	0
11.930000	0.057000	0
11.935000	0.061000	0
11.940000	0.065000	0
11.945000	0.069000	0
11.950000	0.073000	0
11.955000	0.077000	0
11.960000	0.081000	0
11.965000	0.082000	0
11.970000	0.083000	0
11.975000	0.084000	0
11.980000	0.086000	0
11.985000	0.083000	0
11.990000	0.081000	0
11.995000	0.078000	0
12.000000	0.076000	0
12.005000	0.073000	0
12.010000	0.071000	0
12.015000	0.068000	0
12.020000	0.065000	0
12.025000	0.065000	0
12.030000	0.065000	0
12.035000	0.064000	0
12.040000	0.064000	0
12.045000	0.065000	0
12.050000	0.066000	0
12.055000	0.067000	0
12.060000	0.068000	0
12.065000	0.068000	0
12.070000	0.069000	0
12.075000	0.070000	0
12.080000	0.071000	0
12.085000	0.072000	0
12.090000	0.074000	0
12.095000	0.075000	0
12.100000	0.077000	0
12.105000	0.078000	0
12.110000	0.079000	0
12.115000	0.081000	0
12.120000	0.082000	0
12.125000	0.082000	0
12.130000	0.082000	0
12.135000	0.082000	0
12.140000	0.082000	0
12.145000	0.082000	0
12.150000	0.081000	0
12.155000	0.081000	0
12.160000	0.081000	0
12.165000	0.080000	0
12.170000	0.080000	0
12.175000	0.079000	0
12.180000	0.079000	0
12.185000	0.078000	0
12.190000	0.077000	0
12.195000	0.076000	0
12.200000	0.075000	0
12.205000	0.074000	0
12.210000	0.073000	0
12.215000	0.073000	0
12.220000	0.072000	0
12.225000	0.072000	0
12.230000	0.071000	0
12.235000	0.071000	0
12.240000	0.070000	0
12.245000	0.070000	0
12.250000	0.070000	0
12.255000	0.070000	0
12.260000	0.070000	0
12.265000	0.070000	0
12.270000	0.070000	0
12.275000	0.070000	0
12.280000	0.070000	0
12.285000	0.070000	0
12.290000	0.070000	0
12.295000	0.070000	0
12.300000	0.070000	0
12.305000	0.069000	0
12.310000	0.069000	0
12.315000	0.069000	0
12.320000	0.069000	0
12.325000	0.068000	0
12.330000	0.068000	0
12.335000	0.067000	0
12.340000	0.067000	0
12.345000	0.067000	0
12.350000	0.068000	0
12.355000	0.068000	0
12.360000	0.068000	0
12.365000	0.070000	0
12.370000	0.071000	0
12.375000	0.073000	0
12.380000	0.074000	0
12.385000	0.073000	0
12.390000	0.073000	0
12.395000	0.072000	0
12.400000	0.071000	0
12.405000	0.070000	0
12.410000	0.068000	0
12.415000	0.067000	0
12.420000	0.065000	0
12.425000	0.064000	0
12.430000	0.063000	0
12.435000	0.062000	0
12.440000	0.061000	0
12.445000	0.059000	0
12.450000	0.057000	0
12.455000	0.055000	0
12.460000	0.053000	0
12.465000	0.050000	0
12.470000	0.046000	0
12.475000	0.043000	0
12.480000	0.040000	0
12.485000	0.069000	0
12.490000	0.098000	0
12.495000	0.127000	0
12.500000	0.156000	0
12.505000	0.197000	0
12.510000	0.238000	0
12.515000	0.279000	0
12.520000	0.320000	1
12.525000	0.280000	0
12.530000	0.241000	0
12.535000	0.202000	0
12.540000	0.163000	0
12.545000	0.112000	0
12.550000	0.062000	0
12.555000	0.011000	0
12.560000	-0.039000	0
12.565000	-0.033000	0
12.570000	-0.028000	0
12.575000	-0.023000	0
12.580000	-0.018000	0
12.585000	-0.009000	0
12.590000	0.000000	0
12.595000	0.009000	0
12.600000	0.019000	0
12.605000	0.020000	0
12.610000	0.021000	0
12.615000	0.022000	0
12.620000	0.023000	0
12.625000	0.023000	0
12.630000	0.023000	0
12.635000	0.023000	0
12.640000	0.023000	0
12.645000	0.024000	0
12.650000	0.025000	0
12.655000	0.026000	0
12.660000	0.027000	0
12.665000	0.027000	0
12.670000	0.027000	0
12.675000	0.027000	0
12.680000	0.027000	0
12.685000	0.026000	0
12.690000	0.026000	0
12.695000	0.025000	0
12.700000	0.024000	0
12.705000	0.026000	0
12.710000	0.028000	0
12.715000	0.030000	0
12.720000	0.033000	0
12.725000	0.037000	0
12.730000	0.042000	0
12.735000	0.047000	0
12.740000	0.052000	0
12.745000	0.056000	0
12.750000	0.060000	0
12.755000	0.064000	0
12.760000	0.068000	0
12.765000	0.070000	0
12.770000	0.073000	0
12.775000	0.075000	0
12.780000	0.078000	0
12.785000	0.080000	0
12.790000	0.082000	0
12.795000	0.085000	0
12.800000	0.087000	0
12.805000	0.088000	0
12.810000	0.089000	0
12.815000	0.090000	0
12.820000	0.091000	0
12.825000	0.089000	0
12.830000	0.086000	0
12.835000	0.084000	0
12.840000	0.081000	0
12.845000	0.078000	0
12.850000	0.075000	0
12.855000	0.072000	0
12.860000	0.069000	0
12.865000	0.067000	0
12.870000	0.066000	0
12.875000	0.064000	0
12.880000	0.063000	0
12.885000	0.062000	0
12.890000	0.061000	0
12.895000	0.060000	0
12.900000	0.060000	0
12.905000	0.060000	0
12.910000	0.061000	0
12.915000	0.062000	0
12.920000	0.063000	0
12.925000	0.064000	0
12.930000	0.066000	0
12.935000	0.067000	0
12.940000	0.069000	0
12.945000	0.070000	0
12.950000	0.071000	0
12.955000	0.072000	0
12.960000	0.074000	0
12.965000	0.073000	0
12.970000	0.073000	0
12.975000	0.073000	0
12.980000	0.073000	0
12.985000	0.072000	0
12.990000	0.071000	0
12.995000	0.070000	0
13.000000	0.069000	0
13.005000	0.068000	0
13.010000	0.067000	0
13.015000	0.066000	0
13.020000	0.065000	0
13.025000	0.064000	0
13.030000	0.063000	0
13.035000	0.062000	0
13.040000	0.061000	0
13.045000	0.060000	0
13.050000	0.059000	0
13.055000	0.058000	0
13.060000	0.057000	0
13.065000	0.057000	0
13.070000	0.057000	0
13.075000	0.058000	0
13.080000	0.058000	0
13.085000	0.061000	0
13.090000	0.064000	0
13.095000	0.066000	0
13.100000	0.069000	0
13.105000	0.069000	0
13.110000	0.069000	0
13.115000	0.069000	0
13.120000	0.069000	0
13.125000	0.066000	0
13.130000	0.063000	0
13.135000	0.060000	0
13.140000	0.057000	0
13.145000	0.054000	0
13.150000	0.051000	0
13.155000	0.048000	0
13.160000	0.045000	0
13.165000	0.043000	0
13.170000	0.041000	0
13.175000	0.039000	0
13.180000	0.037000	0
13.185000	0.036000	0
13.190000	0.036000	0
13.195000	0.035000	0
13.200000	0.034000	0
13.205000	0.037000	0
13.210000	0.040000	0
13.215000	0.042000	0
13.220000	0.045000	0
13.225000	0.091000	0
13.230000	0.136000	0
13.235000	0.182000	0
13.240000	0.227000	0
13.245000	0.238000	0
13.250000	0.248000	0
13.255000	0.259000	1
13.260000	0.269000	0
13.265000	0.210000	0
13.270000	0.152000	0
13.275000	0.093000	0
13.280000	0.034000	0
13.285000	0.013000	0
13.290000	-0.007000	0
13.295000	-0.027000	0
13.300000	-0.048000	0
13.305000	-0.038000	0
13.310000	-0.028000	0
13.315000	-0.018000	0
13.320000	-0.008000	0
13.325000	-0.004000	0
13.330000	0.000000	0
13.335000	0.002000	0
13.340000	0.006000	0
13.345000	0.005000	0
13.350000	0.005000	0
13.355000	0.004000	0
13.360000	0.004000	0
13.365000	0.004000	0
13.370000	0.005000	0
13.375000	0.005000	0
13.380000	0.006000	0
13.385000	0.007000	0
13.390000	0.008000	0
13.395000	0.010000	0
13.400000	0.011000	0
13.405000	0.010000	0
13.410000	0.010000	0
13.415000	0.009000	0
13.420000	0.009000	0
13.425000	0.008000	0
13.430000	0.007000	0
13.435000	0.007000	0
13.440000	0.006000	0
13.445000	0.008000	0
13.450000	0.010000	0
13.455000	0.012000	0
13.460000	0.014000	0
13.465000	0.018000	0
13.470000	0.022000	0
13.475000	0.026000	0
13.480000	0.030000	0
13.485000	0.033000	0
13.490000	0.036000	0
13.495000	0.039000	0
13.500000	0.042000	0
13.505000	0.044000	0
13.510000	0.046000	0
13.515000	0.048000	0
13.520000	0.050000	0
13.525000	0.052000	0
13.530000	0.055000	0
13.535000	0.057000	0
13.540000	0.060000	0
13.545000	0.060000	0
13.550000	0.061000	0
13.555000	0.061000	0
13.560000	0.062000	0
13.565000	0.059000	0
13.570000	0.057000	0
13.575000	0.055000	0
13.580000	0.053000	0
13.585000	0.051000	0
13.590000	0.049000	0
13.595000	0.046000	0
13.600000	0.044000	0
13.605000	0.043000	0
13.610000	0.042000	0
13.615000	0.041000	0
13.620000	0.041000	0
13.625000	0.041000	0
13.630000	0.041000	0
13.635000	0.041000	0
13.640000	0.041000	0
13.645000	0.042000	0
13.650000	0.043000	0
13.655000	0.044000	0
13.660000	0.045000	0
13.665000	0.046000	0
13.670000	0.048000	0
13.675000	0.049000	0
13.680000	0.051000	0
13.685000	0.051000	0
13.690000	0.051000	0
13.695000	0.051000	0
13.700000	0.052000	0
13.705000	0.051000	0
13.710000	0.050000	0
13.715000	0.049000	0
13.720000	0.048000	0
13.725000	0.048000	0
13.730000	0.047000	0
13.735000	0.047000	0
13.740000	0.047000	0
13.745000	0.046000	0
13.750000	0.046000	0
13.755000	0.045000	0
13.760000	0.045000	0
13.765000	0.044000	0
13.770000	0.043000	0
13.775000	0.042000	0
13.780000	0.041000	0
13.785000	0.041000	0
13.790000	0.040000	0
13.795000	0.040000	0
13.800000	0.040000	0
13.805000	0.039000	0
13.810000	0.039000	0
13.815000	0.039000	0
13.820000	0.039000	0
13.825000	0.039000	0
13.830000	0.039000	0
13.835000	0.039000	0
13.840000	0.039000	0
13.845000	0.038000	0
13.850000	0.038000	0
13.855000	0.038000	0
13.860000	0.038000	0
13.865000	0.037000	0
13.870000	0.037000	0
13.875000	0.037000	0
13.880000	0.037000	0
13.885000	0.038000	0
13.890000	0.039000	0
13.895000	0.040000	0
13.900000	0.041000	0
13.905000	0.044000	0
13.910000	0.047000	0
13.915000	0.050000	0
13.920000	0.053000	0
13.925000	0.052000	0
13.930000	0.051000	0
13.935000	0.050000	0
13.940000	0.049000	0
13.945000	0.045000	0
13.950000	0.041000	0
13.955000	0.037000	0
13.960000	0.033000	0
13.965000	0.031000	0
13.970000	0.029000	0
13.975000	0.027000	0
13.980000	0.026000	0
13.985000	0.025000	0
13.990000	0.025000	0
13.995000	0.024000	0
14.000000	0.024000	0
14.005000	0.022000	0
14.010000	0.021000	0
14.015000	0.019000	0
14.020000	0.018000	0
14.025000	0.037000	0
14.030000	0.056000	0
14.035000	0.075000	0
14.040000	0.094000	0
14.045000	0.141000	0
14.050000	0.188000	0
14.055000	0.236000	0
14.060000	0.283000	0
14.065000	0.228000	1
14.070000	0.174000	0
14.075000	0.119000	0
14.080000	0.065000	0
14.085000	-0.025000	0
14.090000	-0.116000	0
14.095000	-0.207000	0
14.100000	-0.298000	0
14.105000	-0.300000	0
14.110000	-0.302000	0
14.115000	-0.304000	0
14.120000	-0.306000	0
14.125000	-0.296000	0
14.130000	-0.287000	0
14.135000	-0.277000	0
14.140000	-0.268000	0
14.145000	-0.267000	0
14.150000	-0.266000	0
14.155000	-0.265000	0
14.160000	-0.265000	0
14.165000	-0.265000	0
14.170000	-0.266000	0
14.175000	-0.266000	0
14.180000	-0.267000	0
14.185000	-0.266000	0
14.190000	-0.265000	0
14.195000	-0.264000	0
14.200000	-0.264000	0
14.205000	-0.263000	0
14.210000	-0.262000	0
14.215000	-0.261000	0
14.220000	-0.260000	0
14.225000	-0.260000	0
14.230000	-0.261000	0
14.235000	-0.261000	0
14.240000	-0.261000	0
14.245000	-0.260000	0
14.250000	-0.258000	0
14.255000	-0.257000	0
14.260000	-0.256000	0
14.265000	-0.251000	0
14.270000	-0.247000	0
14.275000	-0.243000	0
14.280000	-0.239000	0
14.285000	-0.235000	0
14.290000	-0.232000	0
14.295000	-0.228000	0
14.300000	-0.224000	0
14.305000	-0.221000	0
14.310000	-0.219000	0
14.315000	-0.216000	0
14.320000	-0.213000	0
14.325000	-0.210000	0
14.330000	-0.207000	0
14.335000	-0.203000	0
14.340000	-0.200000	0
14.345000	-0.198000	0
14.350000	-0.197000	0
14.355000	-0.195000	0
14.360000	-0.194000	0
14.365000	-0.195000	0
14.370000	-0.197000	0
14.375000	-0.198000	0
14.380000	-0.200000	0
14.385000	-0.203000	0
14.390000	-0.205000	0
14.395000	-0.208000	0
14.400000	-0.210000	0
14.405000	-0.211000	0
14.410000	-0.213000	0
14.415000	-0.214000	0
14.420000	-0.216000	0
14.425000	-0.216000	0
14.430000	-0.217000	0
14.435000	-0.217000	0
14.440000	-0.218000	0
14.445000	-0.218000	0
14.450000	-0.217000	0
14.455000	-0.217000	0
14.460000	-0.216000	0
14.465000	-0.215000	0
14.470000	-0.213000	0
14.475000	-0.212000	0
14.480000	-0.211000	0
14.485000	-0.210000	0
14.490000	-0.209000	0
14.495000	-0.208000	0
14.500000	-0.208000	0
14.505000	-0.208000	0
14.510000	-0.209000	0
14.515000	-0.209000	0
14.520000	-0.210000	0
14.525000	-0.210000	0
14.530000	-0.211000	0
14.535000	-0.212000	0
14.540000	-0.213000	0
14.545000	-0.213000	0
14.550000	-0.213000	0
14.555000	-0.213000	0
14.560000	-0.214000	0
14.565000	-0.215000	0
14.570000	-0.216000	0
14.575000	-0.217000	0
14.580000	-0.218000	0
14.585000	-0.219000	0
14.590000	-0.221000	0
14.595000	-0.222000	0
14.600000	-0.224000	0
14.605000	-0.225000	0
14.610000	-0.226000	0
14.615000	-0.228000	0
14.620000	-0.229000	0
14.625000	-0.230000	0
14.630000	-0.231000	0
14.635000	-0.231000	0
14.640000	-0.232000	0
14.645000	-0.232000	0
14.650000	-0.232000	0
14.655000	-0.232000	0
14.660000	-0.233000	0
14.665000	-0.232000	0
14.670000	-0.232000	0
14.675000	-0.232000	0
14.680000	-0.232000	0
14.685000	-0.231000	0
14.690000	-0.230000	0
14.695000	-0.228000	0
14.700000	-0.227000	0
14.705000	-0.225000	0
14.710000	-0.223000	0
14.715000	-0.220000	0
14.720000	-0.218000	0
14.725000	-0.220000	0
14.730000	-0.222000	0
14.735000	-0.224000	0
14.740000	-0.226000	0
14.745000	-0.230000	0
14.750000	-0.233000	0
14.755000	-0.237000	0
14.760000	-0.240000	0
14.765000	-0.241000	0
14.770000	-0.243000	0
14.775000	-0.244000	0
14.780000	-0.245000	0
14.785000	-0.246000	0
14.790000	-0.247000	0
14.795000	-0.248000	0
14.800000	-0.249000	0
14.805000	-0.251000	0
14.810000	-0.253000	0
14.815000	-0.255000	0
14.820000	-0.258000	0
14.825000	-0.208000	0
14.830000	-0.159000	0
14.835000	-0.109000	0
14.840000	-0.060000	0
14.845000	0.017000	0
14.850000	0.095000	0
14.855000	0.172000	0
14.860000	0.250000	0
14.865000	0.200000	1
14.870000	0.149000	0
14.875000	0.099000	0
14.880000	0.048000	0
14.885000	-0.039000	0
14.890000	-0.127000	0
14.895000	-0.215000	0
14.900000	-0.304000	0
14.905000	-0.308000	0
14.910000	-0.312000	0
14.915000	-0.316000	0
14.920000	-0.320000	0
14.925000	-0.310000	0
14.930000	-0.300000	0
14.935000	-0.290000	0
14.940000	-0.280000	0
14.945000	-0.277000	0
14.950000	-0.274000	0
14.955000	-0.272000	0
14.960000	-0.269000	0
14.965000	-0.269000	0
14.970000	-0.268000	0
14.975000	-0.268000	0
14.980000	-0.268000	0
14.985000	-0.266000	0
14.990000	-0.265000	0
14.995000	-0.263000	0
15.000000	-0.262000	0
15.005000	-0.261000	0
15.010000	-0.259000	0
15.015000	-0.258000	0
15.020000	-0.257000	0
15.025000	-0.257000	0
15.030000	-0.257000	0
15.035000	-0.257000	0
15.040000	-0.257000	0
15.045000	-0.257000	0
15.050000	-0.257000	0
15.055000	-0.257000	0
15.060000	-0.257000	0
15.065000	-0.222000	0
15.070000	-0.188000	0
15.075000	-0.154000	0
15.080000	-0.120000	0
15.085000	-0.084000	0
15.090000	-0.048000	0
15.095000	-0.013000	0
15.100000	0.022000	0
15.105000	0.025000	0
15.110000	0.028000	0
15.115000	0.031000	0
15.120000	0.034000	0
15.125000	0.037000	0
15.130000	0.040000	0
15.135000	0.043000	0
15.140000	0.046000	0
15.145000	0.049000	0
15.150000	0.052000	0
15.155000	0.054000	0
15.160000	0.057000	0
15.165000	0.057000	0
15.170000	0.057000	0
15.175000	0.057000	0
15.180000	0.057000	0
15.185000	0.055000	0
15.190000	0.052000	0
15.195000	0.050000	0
15.200000	0.048000	0
15.205000	0.046000	0
15.210000	0.045000	0
15.215000	0.043000	0
15.220000	0.042000	0
15.225000	0.041000	0
15.230000	0.041000	0
15.235000	0.041000	0
15.240000	0.041000	0
15.245000	0.042000	0
15.250000	0.042000	0
15.255000	0.043000	0
15.260000	0.043000	0
15.265000	0.044000	0
15.270000	0.046000	0
15.275000	0.047000	0
15.280000	0.049000	0
15.285000	0.050000	0
15.290000	0.051000	0
15.295000	0.052000	0
15.300000	0.054000	0
15.305000	0.054000	0
15.310000	0.054000	0
15.315000	0.054000	0
15.320000	0.054000	0
15.325000	0.054000	0
15.330000	0.054000	0
15.335000	0.055000	0
15.340000	0.055000	0
15.345000	0.055000	0
15.350000	0.056000	0
15.355000	0.056000	0
15.360000	0.057000	0
15.365000	0.056000	0
15.370000	0.055000	0
15.375000	0.054000	0
15.380000	0.053000	0
15.385000	0.051000	0
15.390000	0.050000	0
15.395000	0.048000	0
15.400000	0.047000	0
15.405000	0.047000	0
15.410000	0.047000	0
15.415000	0.046000	0
15.420000	0.046000	0
15.425000	0.045000	0
15.430000	0.045000	0
15.435000	0.044000	0
15.440000	0.043000	0
15.445000	0.041000	0
15.450000	0.040000	0
15.455000	0.038000	0
15.460000	0.036000	0
15.465000	0.035000	0
15.470000	0.035000	0
15.475000	0.034000	0
15.480000	0.034000	0
15.485000	0.035000	0
15.490000	0.037000	0
15.495000	0.039000	0
15.500000	0.041000	0
15.505000	0.043000	0
15.510000	0.045000	0
15.515000	0.047000	0
15.520000	0.049000	0
15.525000	0.047000	0
15.530000	0.045000	0
15.535000	0.043000	0
15.540000	0.041000	0
15.545000	0.037000	0
15.550000	0.034000	0
15.555000	0.031000	0
15.560000	0.028000	0
15.565000	0.027000	0
15.570000	0.026000	0
15.575000	0.025000	0
15.580000	0.024000	0
15.585000	0.024000	0
15.590000	0.023000	0
15.595000	0.023000	0
15.600000	0.023000	0
15.605000	0.025000	0
15.610000	0.027000	0
15.615000	0.029000	0
15.620000	0.031000	0
15.625000	0.073000	0
15.630000	0.116000	0
15.635000	0.158000	0
15.640000	0.201000	0
15.645000	0.214000	0
15.650000	0.228000	0
15.655000	0.242000	1
15.660000	0.256000	0
15.665000	0.203000	0
15.670000	0.150000	0
15.675000	0.096000	0
15.680000	0.043000	0
15.685000	0.020000	0
15.690000	-0.002000	0
15.695000	-0.025000	0
15.700000	-0.049000	0
15.705000	-0.042000	0
15.710000	-0.035000	0
15.715000	-0.028000	0
15.720000	-0.021000	0
15.725000	-0.017000	0
15.730000	-0.014000	0
15.735000	-0.010000	0
15.740000	-0.007000	0
15.745000	-0.006000	0
15.750000	-0.006000	0
15.755000	-0.005000	0
15.760000	-0.005000	0
15.765000	-0.003000	0
15.770000	-0.002000	0
15.775000	-0.001000	0
15.780000	0.000000	0
15.785000	0.000000	0
15.790000	0.001000	0
15.795000	0.002000	0
15.800000	0.003000	0
15.805000	0.002000	0
15.810000	0.001000	0
15.815000	0.001000	0
15.820000	0.000000	0
15.825000	0.000000	0
15.830000	0.000000	0
15.835000	0.000000	0
15.840000	-0.001000	0
15.845000	0.000000	0
15.850000	0.001000	0
15.855000	0.002000	0
15.860000	0.004000	0
15.865000	0.006000	0
15.870000	0.008000	0
15.875000	0.011000	0
15.880000	0.013000	0
15.885000	0.016000	0
15.890000	0.018000	0
15.895000	0.021000	0
15.900000	0.023000	0
15.905000	0.026000	0
15.910000	0.029000	0
15.915000	0.032000	0
15.920000	0.036000	0
15.925000	0.040000	0
15.930000	0.044000	0
15.935000	0.048000	0
15.940000	0.052000	0
15.945000	0.053000	0
15.950000	0.055000	0
15.955000	0.056000	0
15.960000	0.058000	0
15.965000	0.056000	0
15.970000	0.054000	0
15.975000	0.052000	0
15.980000	0.050000	0
15.985000	0.048000	0
15.990000	0.047000	0
15.995000	0.045000	0
16.000000	0.043000	0
16.005000	0.042000	0
16.010000	0.041000	0
16.015000	0.040000	0
16.020000	0.040000	0
16.025000	0.040000	0
16.030000	0.040000	0
16.035000	0.041000	0
16.040000	0.041000	0
16.045000	0.042000	0
16.050000	0.044000	0
16.055000	0.045000	0
16.060000	0.046000	0
16.065000	0.047000	0
16.070000	0.047000	0
16.075000	0.048000	0
16.080000	0.049000	0
16.085000	0.049000	0
16.090000	0.050000	0
16.095000	0.050000	0
16.100000	0.051000	0
16.105000	0.051000	0
16.110000	0.051000	0
16.115000	0.051000	0
16.120000	0.051000	0
16.125000	0.051000	0
16.130000	0.051000	0
16.135000	0.050000	0
16.140000	0.050000	0
16.145000	0.049000	0
16.150000	0.049000	0
16.155000	0.048000	0
16.160000	0.048000	0
16.165000	0.046000	0
16.170000	0.045000	0
16.175000	0.044000	0
16.180000	0.043000	0
16.185000	0.042000	0
16.190000	0.041000	0
16.195000	0.040000	0
16.200000	0.040000	0
16.205000	0.039000	0
16.210000	0.039000	0
16.215000	0.039000	0
16.220000	0.039000	0
16.225000	0.039000	0
16.230000	0.040000	0
16.235000	0.040000	0
16.240000	0.041000	0
16.245000	0.042000	0
16.250000	0.044000	0
16.255000	0.046000	0
16.260000	0.048000	0
16.265000	0.048000	0
16.270000	0.049000	0
16.275000	0.049000	0
16.280000	0.050000	0
16.285000	0.047000	0
16.290000	0.045000	0
16.295000	0.042000	0
16.300000	0.040000	0
16.305000	0.038000	0
16.310000	0.035000	0
16.315000	0.033000	0
16.320000	0.030000	0
16.325000	0.029000	0
16.330000	0.028000	0
16.335000	0.027000	0
16.340000	0.026000	0
16.345000	0.024000	0
16.350000	0.023000	0
16.355000	0.021000	0
16.360000	0.020000	0
16.365000	0.036000	0
16.370000	0.053000	0
16.375000	0.069000	0
16.380000	0.086000	0
16.385000	0.132000	0
16.390000	0.179000	0
16.395000	0.225000	0
16.400000	0.272000	0
16.405000	0.257000	1
16.410000	0.242000	0
16.415000	0.227000	0
16.420000	0.212000	0
16.425000	0.154000	0
16.430000	0.096000	0
16.435000	0.039000	0
16.440000	-0.018000	0
16.445000	-0.025000	0
16.450000	-0.032000	0
16.455000	-0.039000	0
16.460000	-0.047000	0
16.465000	-0.037000	0
16.470000	-0.027000	0
16.475000	-0.018000	0
16.480000	-0.008000	0
16.485000	-0.006000	0
16.490000	-0.004000	0
16.495000	-0.002000	0
16.500000	0.000000	0
16.505000	0.000000	0
16.510000	0.000000	0
16.515000	0.000000	0
16.520000	0.000000	0
16.525000	0.000000	0
16.530000	0.000000	0
16.535000	0.001000	0
16.540000	0.002000	0
16.545000	0.002000	0
16.550000	0.003000	0
16.555000	0.003000	0
16.560000	0.004000	0
16.565000	0.004000	0
16.570000	0.004000	0
16.575000	0.004000	0
16.580000	0.004000	0
16.585000	0.003000	0
16.590000	0.003000	0
16.595000	0.002000	0
16.600000	0.002000	0
16.605000	0.004000	0
16.610000	0.007000	0
16.615000	0.009000	0
16.620000	0.011000	0
16.625000	0.015000	0
16.630000	0.019000	0
16.635000	0.023000	0
16.640000	0.028000	0
16.645000	0.031000	0
16.650000	0.034000	0
16.655000	0.037000	0
16.660000	0.041000	0
16.665000	0.044000	0
16.670000	0.047000	0
16.675000	0.050000	0
16.680000	0.054000	0
16.685000	0.056000	0
16.690000	0.059000	0
16.695000	0.061000	0
16.700000	0.064000	0
16.705000	0.063000	0
16.710000	0.063000	0
16.715000	0.063000	0
16.720000	0.063000	0
16.725000	0.061000	0
16.730000	0.059000	0
16.735000	0.057000	0
16.740000	0.056000	0
16.745000	0.055000	0
16.750000	0.054000	0
16.755000	0.053000	0
16.760000	0.052000	0
16.765000	0.052000	0
16.770000	0.052000	0
16.775000	0.051000	0
16.780000	0.051000	0
16.785000	0.052000	0
16.790000	0.052000	0
16.795000	0.053000	0
16.800000	0.053000	0
16.805000	0.055000	0
16.810000	0.057000	0
16.815000	0.059000	0
16.820000	0.061000	0
16.825000	0.063000	0
16.830000	0.065000	0
16.835000	0.067000	0
16.840000	0.069000	0
16.845000	0.069000	0
16.850000	0.069000	0
16.855000	0.070000	0
16.860000	0.070000	0
16.865000	0.069000	0
16.870000	0.069000	0
16.875000	0.068000	0
16.880000	0.068000	0
16.885000	0.067000	0
16.890000	0.067000	0
16.895000	0.067000	0
16.900000	0.067000	0
16.905000	0.066000	0
16.910000	0.065000	0
16.915000	0.064000	0
16.920000	0.063000	0
16.925000	0.062000	0
16.930000	0.060000	0
16.935000	0.059000	0
16.940000	0.058000	0
16.945000	0.056000	0
16.950000	0.055000	0
16.955000	0.054000	0
16.960000	0.053000	0
16.965000	0.052000	0
16.970000	0.051000	0
16.975000	0.050000	0
16.980000	0.050000	0
16.985000	0.049000	0
16.990000	0.049000	0
16.995000	0.049000	0
17.000000	0.049000	0
17.005000	0.049000	0
17.010000	0.049000	0
17.015000	0.049000	0
17.020000	0.049000	0
17.025000	0.048000	0
17.030000	0.047000	0
17.035000	0.046000	0
17.040000	0.046000	0
17.045000	0.045000	0
17.050000	0.045000	0
17.055000	0.044000	0
17.060000	0.044000	0
17.065000	0.045000	0
17.070000	0.046000	0
17.075000	0.047000	0
17.080000	0.048000	0
17.085000	0.048000	0
17.090000	0.048000	0
17.095000	0.047000	0
17.100000	0.047000	0
17.105000	0.047000	0
17.110000	0.047000	0
17.115000	0.047000	0
17.120000	0.047000	0
17.125000	0.047000	0
17.130000	0.048000	0
17.135000	0.048000	0
17.140000	0.049000	0
17.145000	0.051000	0
17.150000	0.052000	0
17.155000	0.054000	0
17.160000	0.056000	0
17.165000	0.056000	0
17.170000	0.056000	0
17.175000	0.056000	0
17.180000	0.057000	0
17.185000	0.055000	0
17.190000	0.053000	0
17.195000	0.052000	0
17.200000	0.050000	0
17.205000	0.049000	0
17.210000	0.048000	0
17.215000	0.047000	0
17.220000	0.047000	0
17.225000	0.045000	0
17.230000	0.044000	0
17.235000	0.043000	0
17.240000	0.042000	0
17.245000	0.040000	0
17.250000	0.038000	0
17.255000	0.036000	0
17.260000	0.035000	0
17.265000	0.041000	0
17.270000	0.047000	0
17.275000	0.054000	0
17.280000	0.060000	0
17.285000	0.108000	0
17.290000	0.156000	0
17.295000	0.204000	0
17.300000	0.253000	0
17.305000	0.254000	0
17.310000	0.256000	1
17.315000	0.258000	0
17.320000	0.260000	0
17.325000	0.197000	0
17.330000	0.135000	0
17.335000	0.072000	0
17.340000	0.010000	0
17.345000	-0.005000	0
17.350000	-0.021000	0
17.355000	-0.036000	0
17.360000	-0.052000	0
17.365000	-0.041000	0
17.370000	-0.029000	0
17.375000	-0.018000	0
17.380000	-0.007000	0
17.385000	-0.003000	0
17.390000	0.000000	0
17.395000	0.002000	0
17.400000	0.006000	0
17.405000	0.005000	0
17.410000	0.005000	0
17.415000	0.005000	0
17.420000	0.005000	0
17.425000	0.006000	0
17.430000	0.006000	0
17.435000	0.007000	0
17.440000	0.007000	0
17.445000	0.008000	0
17.450000	0.009000	0
17.455000	0.010000	0
17.460000	0.012000	0
17.465000	0.012000	0
17.470000	0.012000	0
17.475000	0.012000	0
17.480000	0.012000	0
17.485000	0.012000	0
17.490000	0.012000	0
17.495000	0.013000	0
17.500000	0.013000	0
17.505000	0.017000	0
17.510000	0.021000	0
17.515000	0.025000	0
17.520000	0.029000	0
17.525000	0.035000	0
17.530000	0.041000	0
17.535000	0.046000	0
17.540000	0.052000	0
17.545000	0.056000	0
17.550000	0.061000	0
17.555000	0.065000	0
17.560000	0.069000	0
17.565000	0.073000	0
17.570000	0.077000	0
17.575000	0.081000	0
17.580000	0.086000	0
17.585000	0.088000	0
17.590000	0.091000	0
17.595000	0.093000	0
17.600000	0.096000	0
17.605000	0.095000	0
17.610000	0.093000	0
17.615000	0.092000	0
17.620000	0.090000	0
17.625000	0.085000	0
17.630000	0.081000	0
17.635000	0.076000	0
17.640000	0.072000	0
17.645000	0.068000	0
17.650000	0.065000	0
17.655000	0.061000	0
17.660000	0.058000	0
17.665000	0.058000	0
17.670000	0.057000	0
17.675000	0.057000	0
17.680000	0.056000	0
17.685000	0.056000	0
17.690000	0.056000	0
17.695000	0.056000	0
17.700000	0.056000	0
17.705000	0.057000	0
17.710000	0.058000	0
17.715000	0.059000	0
17.720000	0.060000	0
17.725000	0.061000	0
17.730000	0.063000	0
17.735000	0.064000	0
17.740000	0.066000	0
17.745000	0.066000	0
17.750000	0.066000	0
17.755000	0.066000	0
17.760000	0.066000	0
17.765000	0.066000	0
17.770000	0.065000	0
17.775000	0.065000	0
17.780000	0.065000	0
17.785000	0.064000	0
17.790000	0.064000	0
17.795000	0.064000	0
17.800000	0.064000	0
17.805000	0.064000	0
17.810000	0.063000	0
17.815000	0.063000	0
17.820000	0.062000	0
17.825000	0.061000	0
17.830000	0.059000	0
17.835000	0.058000	0
17.840000	0.056000	0
17.845000	0.055000	0
17.850000	0.054000	0
17.855000	0.052000	0
17.860000	0.051000	0
17.865000	0.050000	0
17.870000	0.049000	0
17.875000	0.048000	0
17.880000	0.047000	0
17.885000	0.046000	0
17.890000	0.045000	0
17.895000	0.044000	0
17.900000	0.044000	0
17.905000	0.044000	0
17.910000	0.044000	0
17.915000	0.044000	0
17.920000	0.044000	0
17.925000	0.045000	0
17.930000	0.046000	0
17.935000	0.047000	0
17.940000	0.048000	0
17.945000	0.048000	0
17.950000	0.048000	0
17.955000	0.049000	0
17.960000	0.049000	0
17.965000	0.049000	0
17.970000	0.049000	0
17.975000	0.049000	0
17.980000	0.049000	0
17.985000	0.048000	0
17.990000	0.046000	0
17.995000	0.045000	0
18.000000	0.044000	0
18.005000	0.041000	0
18.010000	0.039000	0
18.015000	0.036000	0
18.020000	0.034000	0
18.025000	0.032000	0
18.030000	0.031000	0
18.035000	0.029000	0
18.040000	0.028000	0
18.045000	0.026000	0
18.050000	0.025000	0
18.055000	0.024000	0
18.060000	0.023000	0
18.065000	0.023000	0
18.070000	0.023000	0
18.075000	0.023000	0
18.080000	0.023000	0
18.085000	0.021000	0
18.090000	0.020000	0
18.095000	0.018000	0
18.100000	0.017000	0
18.105000	0.056000	0
18.110000	0.095000	0
18.115000	0.133000	0
18.120000	0.172000	0
18.125000	0.210000	0
18.130000	0.247000	0
18.135000	0.285000	0
18.140000	0.323000	1
18.145000	0.272000	0
18.150000	0.222000	0
18.155000	0.171000	0
18.160000	0.121000	0
18.165000	0.075000	0
18.170000	0.029000	0
18.175000	-0.016000	0
18.180000	-0.063000	0
18.185000	-0.056000	0
18.190000	-0.049000	0
18.195000	-0.043000	0
18.200000	-0.036000	0
18.205000	-0.030000	0
18.210000	-0.024000	0
18.215000	-0.018000	0
18.220000	-0.012000	0
18.225000	-0.012000	0
18.230000	-0.011000	0
18.235000	-0.011000	0
18.240000	-0.011000	0
18.245000	-0.011000	0
18.250000	-0.011000	0
18.255000	-0.011000	0
18.260000	-0.012000	0
18.265000	-0.011000	0
18.270000	-0.010000	0
18.275000	-0.009000	0
18.280000	-0.008000	0
18.285000	-0.006000	0
18.290000	-0.005000	0
18.295000	-0.004000	0
18.300000	-0.003000	0
18.305000	-0.003000	0
18.310000	-0.004000	0
18.315000	-0.004000	0
18.320000	-0.004000	0
18.325000	-0.002000	0
18.330000	0.000000	0
18.335000	0.001000	0
18.340000	0.003000	0
18.345000	0.008000	0
18.350000	0.014000	0
18.355000	0.020000	0
18.360000	0.026000	0
18.365000	0.031000	0
18.370000	0.037000	0
18.375000	0.042000	0
18.380000	0.048000	0
18.385000	0.051000	0
18.390000	0.054000	0
18.395000	0.057000	0
18.400000	0.061000	0
18.405000	0.063000	0
18.410000	0.066000	0
18.415000	0.068000	0
18.420000	0.071000	0
18.425000	0.072000	0
18.430000	0.073000	0
18.435000	0.074000	0
18.440000	0.075000	0
18.445000	0.072000	0
18.450000	0.069000	0
18.455000	0.066000	0
18.460000	0.063000	0
18.465000	0.059000	0
18.470000	0.056000	0
18.475000	0.052000	0
18.480000	0.049000	0
18.485000	0.047000	0
18.490000	0.046000	0
18.495000	0.044000	0
18.500000	0.043000	0
18.505000	0.042000	0
18.510000	0.042000	0
18.515000	0.042000	0
18.520000	0.042000	0
18.525000	0.043000	0
18.530000	0.045000	0
18.535000	0.046000	0
18.540000	0.048000	0
18.545000	0.049000	0
18.550000	0.051000	0
18.555000	0.052000	0
18.560000	0.054000	0
18.565000	0.054000	0
18.570000	0.055000	0
18.575000	0.056000	0
18.580000	0.057000	0
18.585000	0.057000	0
18.590000	0.057000	0
18.595000	0.057000	0
18.600000	0.057000	0
18.605000	0.055000	0
18.610000	0.054000	0
18.615000	0.052000	0
18.620000	0.051000	0
18.625000	0.050000	0
18.630000	0.050000	0
18.635000	0.049000	0
18.640000	0.048000	0
18.645000	0.046000	0
18.650000	0.044000	0
18.655000	0.042000	0
18.660000	0.040000	0
18.665000	0.037000	0
18.670000	0.035000	0
18.675000	0.032000	0
18.680000	0.030000	0
18.685000	0.029000	0
18.690000	0.028000	0
18.695000	0.027000	0
18.700000	0.027000	0
18.705000	0.026000	0
18.710000	0.026000	0
18.715000	0.025000	0
18.720000	0.025000	0
18.725000	0.024000	0
18.730000	0.024000	0
18.735000	0.023000	0
18.740000	0.022000	0
18.745000	0.022000	0
18.750000	0.022000	0
18.755000	0.022000	0
18.760000	0.022000	0
18.765000	0.021000	0
18.770000	0.020000	0
18.775000	0.020000	0
18.780000	0.019000	0
18.785000	0.019000	0
18.790000	0.020000	0
18.795000	0.020000	0
18.800000	0.021000	0
18.805000	0.020000	0
18.810000	0.019000	0
18.815000	0.018000	0
18.820000	0.018000	0
18.825000	0.016000	0
18.830000	0.014000	0
18.835000	0.012000	0
18.840000	0.011000	0
18.845000	0.009000	0
18.850000	0.008000	0
18.855000	0.007000	0
18.860000	0.006000	0
18.865000	0.005000	0
18.870000	0.004000	0
18.875000	0.003000	0
18.880000	0.002000	0
18.885000	0.002000	0
18.890000	0.003000	0
18.895000	0.003000	0
18.900000	0.003000	0
18.905000	0.008000	0
18.910000	0.012000	0
18.915000	0.017000	0
18.920000	0.022000	0
18.925000	0.073000	0
18.930000	0.125000	0
18.935000	0.176000	0
18.940000	0.228000	0
18.945000	0.240000	0
18.950000	0.253000	0
18.955000	0.266000	1
18.960000	0.279000	0
18.965000	0.215000	0
18.970000	0.152000	0
18.975000	0.089000	0
18.980000	0.026000	0
18.985000	0.003000	0
18.990000	-0.020000	0
18.995000	-0.043000	0
19.000000	-0.067000	0
19.005000	-0.056000	0
19.010000	-0.046000	0
19.015000	-0.035000	0
19.020000	-0.025000	0
19.025000	-0.019000	0
19.030000	-0.014000	0
19.035000	-0.008000	0
19.040000	-0.003000	0
19.045000	-0.002000	0
19.050000	-0.002000	0
19.055000	-0.002000	0
19.060000	-0.002000	0
19.065000	-0.001000	0
19.070000	0.000000	0
19.075000	0.000000	0
19.080000	0.000000	0
19.085000	0.002000	0
19.090000	0.005000	0
19.095000	0.007000	0
19.100000	0.009000	0
19.105000	0.010000	0
19.110000	0.011000	0
19.115000	0.011000	0
19.120000	0.012000	0
19.125000	0.012000	0
19.130000	0.011000	0
19.135000	0.011000	0
19.140000	0.011000	0
19.145000	0.012000	0
19.150000	0.014000	0
19.155000	0.016000	0
19.160000	0.018000	0
19.165000	0.023000	0
19.170000	0.028000	0
19.175000	0.033000	0
19.180000	0.038000	0
19.185000	0.042000	0
19.190000	0.047000	0
19.195000	0.051000	0
19.200000	0.056000	0
19.205000	0.060000	0
19.210000	0.064000	0
19.215000	0.067000	0
19.220000	0.071000	0
19.225000	0.075000	0
19.230000	0.080000	0
19.235000	0.084000	0
19.240000	0.088000	0
19.245000	0.089000	0
19.250000	0.091000	0
19.255000	0.092000	0
19.260000	0.093000	0
19.265000	0.090000	0
19.270000	0.087000	0
19.275000	0.084000	0
19.280000	0.082000	0
19.285000	0.079000	0
19.290000	0.076000	0
19.295000	0.074000	0
19.300000	0.071000	0
19.305000	0.070000	0
19.310000	0.069000	0
19.315000	0.068000	0
19.320000	0.068000	0
19.325000	0.068000	0
19.330000	0.068000	0
19.335000	0.068000	0
19.340000	0.068000	0
19.345000	0.069000	0
19.350000	0.071000	0
19.355000	0.072000	0
19.360000	0.074000	0
19.365000	0.074000	0
19.370000	0.075000	0
19.375000	0.076000	0
19.380000	0.077000	0
19.385000	0.076000	0
19.390000	0.076000	0
19.395000	0.075000	0
19.400000	0.074000	0
19.405000	0.073000	0
19.410000	0.073000	0
19.415000	0.072000	0
19.420000	0.072000	0
19.425000	0.072000	0
19.430000	0.073000	0
19.435000	0.073000	0
19.440000	0.074000	0
19.445000	0.074000	0
19.450000	0.075000	0
19.455000	0.076000	0
19.460000	0.077000	0
19.465000	0.078000	0
19.470000	0.080000	0
19.475000	0.081000	0
19.480000	0.083000	0
19.485000	0.086000	0
19.490000	0.088000	0
19.495000	0.091000	0
19.500000	0.094000	0
19.505000	0.092000	0
19.510000	0.091000	0
19.515000	0.089000	0
19.520000	0.088000	0
19.525000	0.083000	0
19.530000	0.078000	0
19.535000	0.072000	0
19.540000	0.067000	0
19.545000	0.063000	0
19.550000	0.059000	0
19.555000	0.054000	0
19.560000	0.050000	0
19.565000	0.049000	0
19.570000	0.047000	0
19.575000	0.046000	0
19.580000	0.044000	0
19.585000	0.042000	0
19.590000	0.039000	0
19.595000	0.037000	0
19.600000	0.035000	0
19.605000	0.047000	0
19.610000	0.060000	0
19.615000	0.072000	0
19.620000	0.085000	0
19.625000	0.140000	0
19.630000	0.195000	0
19.635000	0.250000	0
19.640000	0.306000	0
19.645000	0.302000	0
19.650000	0.298000	1
19.655000	0.295000	0
19.660000	0.291000	0
19.665000	0.224000	0
19.670000	0.157000	0
19.675000	0.090000	0
19.680000	0.024000	0
19.685000	0.007000	0
19.690000	-0.008000	0
19.695000	-0.025000	0
19.700000	-0.041000	0
19.705000	-0.032000	0
19.710000	-0.023000	0
19.715000	-0.013000	0
19.720000	-0.004000	0
19.725000	-0.002000	0
19.730000	0.000000	0
19.735000	0.002000	0
19.740000	0.004000	0
19.745000	0.004000	0
19.750000	0.004000	0
19.755000	0.003000	0
19.760000	0.003000	0
19.765000	0.004000	0
19.770000	0.004000	0
19.775000	0.005000	0
19.780000	0.006000	0
19.785000	0.006000	0
19.790000	0.006000	0
19.795000	0.007000	0
19.800000	0.007000	0
19.805000	0.006000	0
19.810000	0.005000	0
19.815000	0.004000	0
19.820000	0.004000	0
19.825000	0.003000	0
19.830000	0.003000	0
19.835000	0.003000	0
19.840000	0.003000	0
19.845000	0.005000	0
19.850000	0.007000	0
19.855000	0.009000	0
19.860000	0.011000	0
19.865000	0.014000	0
19.870000	0.017000	0
19.875000	0.020000	0
19.880000	0.024000	0
19.885000	0.027000	0
19.890000	0.030000	0
19.895000	0.033000	0
19.900000	0.037000	0
19.905000	0.041000	0
19.910000	0.045000	0
19.915000	0.050000	0
19.920000	0.054000	0
19.925000	0.058000	0
19.930000	0.063000	0
19.935000	0.067000	0
19.940000	0.071000	0
19.945000	0.072000	0
19.950000	0.073000	0
19.955000	0.073000	0
19.960000	0.074000	0
19.965000	0.072000	0
19.970000	0.070000	0
19.975000	0.068000	0
19.980000	0.066000	0
19.985000	0.064000	0
19.990000	0.062000	0
19.995000	0.060000	0
20.000000	0.058000	0
20.005000	0.057000	0
20.010000	0.056000	0
20.015000	0.055000	0
20.020000	0.054000	0
20.025000	0.055000	0
20.030000	0.056000	0
20.035000	0.057000	0
20.040000	0.058000	0
20.045000	0.059000	0
20.050000	0.061000	0
20.055000	0.063000	0
20.060000	0.065000	0
20.065000	0.067000	0
20.070000	0.068000	0
20.075000	0.070000	0
20.080000	0.071000	0
20.085000	0.072000	0
20.090000	0.072000	0
20.095000	0.073000	0
20.100000	0.074000	0
20.105000	0.074000	0
20.110000	0.074000	0
20.115000	0.075000	0
20.120000	0.075000	0
20.125000	0.075000	0
20.130000	0.075000	0
20.135000	0.074000	0
20.140000	0.074000	0
20.145000	0.073000	0
20.150000	0.072000	0
20.155000	0.070000	0
20.160000	0.069000	0
20.165000	0.068000	0
20.170000	0.067000	0
20.175000	0.065000	0
20.180000	0.064000	0
20.185000	0.064000	0
20.190000	0.063000	0
20.195000	0.063000	0
20.200000	0.063000	0
20.205000	0.062000	0
20.210000	0.062000	0
20.215000	0.062000	0
20.220000	0.062000	0
20.225000	0.061000	0
20.230000	0.061000	0
20.235000	0.061000	0
20.240000	0.061000	0
20.245000	0.061000	0
20.250000	0.061000	0
20.255000	0.061000	0
20.260000	0.061000	0
20.265000	0.060000	0
20.270000	0.060000	0
20.275000	0.059000	0
20.280000	0.059000	0
20.285000	0.058000	0
20.290000	0.058000	0
20.295000	0.057000	0
20.300000	0.057000	0
20.305000	0.057000	0
20.310000	0.057000	0
20.315000	0.057000	0
20.320000	0.057000	0
20.325000	0.058000	0
20.330000	0.058000	0
20.335000	0.059000	0
20.340000	0.060000	0
20.345000	0.061000	0
20.350000	0.063000	0
20.355000	0.064000	0
20.360000	0.066000	0
20.365000	0.065000	0
20.370000	0.065000	0
20.375000	0.065000	0
20.380000	0.065000	0
20.385000	0.063000	0
20.390000	0.062000	0
20.395000	0.061000	0
20.400000	0.060000	0
20.405000	0.059000	0
20.410000	0.058000	0
20.415000	0.057000	0
20.420000	0.057000	0
20.425000	0.056000	0
20.430000	0.055000	0
20.435000	0.054000	0
20.440000	0.053000	0
20.445000	0.051000	0
20.450000	0.049000	0
20.455000	0.047000	0
20.460000	0.045000	0
20.465000	0.091000	0
20.470000	0.137000	0
20.475000	0.183000	0
20.480000	0.230000	0
20.485000	0.262000	0
20.490000	0.294000	0
20.495000	0.326000	1
20.500000	0.359000	0
20.505000	0.300000	0
20.510000	0.241000	0
20.515000	0.182000	0
20.520000	0.123000	0
20.525000	0.081000	0
20.530000	0.039000	0
20.535000	-0.003000	0
20.540000	-0.045000	0
20.545000	-0.037000	0
20.550000	-0.030000	0
20.555000	-0.023000	0
20.560000	-0.016000	0
20.565000	-0.008000	0
20.570000	-0.001000	0
20.575000	0.006000	0
20.580000	0.014000	0
20.585000	0.014000	0
20.590000	0.015000	0
20.595000	0.016000	0
20.600000	0.017000	0
20.605000	0.017000	0
20.610000	0.017000	0
20.615000	0.016000	0
20.620000	0.016000	0
20.625000	0.016000	0
20.630000	0.016000	0
20.635000	0.016000	0
20.640000	0.017000	0
20.645000	0.016000	0
20.650000	0.016000	0
20.655000	0.015000	0
20.660000	0.015000	0
20.665000	0.014000	0
20.670000	0.013000	0
20.675000	0.012000	0
20.680000	0.011000	0
20.685000	0.012000	0
20.690000	0.013000	0
20.695000	0.014000	0
20.700000	0.015000	0
20.705000	0.019000	0
20.710000	0.023000	0
20.715000	0.027000	0
20.720000	0.032000	0
20.725000	0.036000	0
20.730000	0.040000	0
20.735000	0.044000	0
20.740000	0.048000	0
20.745000	0.051000	0
20.750000	0.055000	0
20.755000	0.059000	0
20.760000	0.063000	0
20.765000	0.068000	0
20.770000	0.072000	0
20.775000	0.077000	0
20.780000	0.081000	0
20.785000	0.083000	0
20.790000	0.084000	0
20.795000	0.086000	0
20.800000	0.087000	0
20.805000	0.084000	0
20.810000	0.082000	0
20.815000	0.079000	0
20.820000	0.076000	0
20.825000	0.073000	0
20.830000	0.071000	0
20.835000	0.068000	0
20.840000	0.066000	0
20.845000	0.065000	0
20.850000	0.065000	0
20.855000	0.065000	0
20.860000	0.065000	0
20.865000	0.065000	0
20.870000	0.065000	0
20.875000	0.065000	0
20.880000	0.066000	0
20.885000	0.066000	0
20.890000	0.067000	0
20.895000	0.068000	0
20.900000	0.069000	0
20.905000	0.070000	0
20.910000	0.072000	0
20.915000	0.073000	0
20.920000	0.075000	0
20.925000	0.076000	0
20.930000	0.076000	0
20.935000	0.077000	0
20.940000	0.078000	0
20.945000	0.077000	0
20.950000	0.076000	0
20.955000	0.076000	0
20.960000	0.075000	0
20.965000	0.075000	0
20.970000	0.075000	0
20.975000	0.074000	0
20.980000	0.074000	0
20.985000	0.074000	0
20.990000	0.073000	0
20.995000	0.073000	0
21.000000	0.072000	0
21.005000	0.071000	0
21.010000	0.070000	0
21.015000	0.068000	0
21.020000	0.067000	0
21.025000	0.068000	0
21.030000	0.070000	0
21.035000	0.071000	0
21.040000	0.073000	0
21.045000	0.076000	0
21.050000	0.080000	0
21.055000	0.083000	0
21.060000	0.087000	0
21.065000	0.086000	0
21.070000	0.085000	0
21.075000	0.083000	0
21.080000	0.082000	0
21.085000	0.077000	0
21.090000	0.072000	0
21.095000	0.067000	0
21.100000	0.063000	0
21.105000	0.060000	0
21.110000	0.057000	0
21.115000	0.054000	0
21.120000	0.051000	0
21.125000	0.050000	0
21.130000	0.049000	0
21.135000	0.048000	0
21.140000	0.048000	0
21.145000	0.046000	0
21.150000	0.044000	0
21.155000	0.042000	0
21.160000	0.040000	0
21.165000	0.052000	0
21.170000	0.064000	0
21.175000	0.075000	0
21.180000	0.087000	0
21.185000	0.147000	0
21.190000	0.207000	0
21.195000	0.267000	0
21.200000	0.327000	0
21.205000	0.320000	0
21.210000	0.313000	1
21.215000	0.306000	0
21.220000	0.299000	0
21.225000	0.226000	0
21.230000	0.153000	0
21.235000	0.080000	0
21.240000	0.007000	0
21.245000	-0.004000	0
21.250000	-0.016000	0
21.255000	-0.028000	0
21.260000	-0.040000	0
21.265000	-0.029000	0
21.270000	-0.018000	0
21.275000	-0.007000	0
21.280000	0.003000	0
21.285000	0.006000	0
21.290000	0.008000	0
21.295000	0.011000	0
21.300000	0.014000	0
21.305000	0.013000	0
21.310000	0.013000	0
21.315000	0.013000	0
21.320000	0.013000	0
21.325000	0.013000	0
21.330000	0.014000	0
21.335000	0.015000	0
21.340000	0.016000	0
21.345000	0.017000	0
21.350000	0.019000	0
21.355000	0.020000	0
21.360000	0.021000	0
21.365000	0.021000	0
21.370000	0.021000	0
21.375000	0.021000	0
21.380000	0.022000	0
21.385000	0.021000	0
21.390000	0.021000	0
21.395000	0.020000	0
21.400000	0.020000	0
21.405000	0.022000	0
21.410000	0.025000	0
21.415000	0.027000	0
21.420000	0.029000	0
21.425000	0.034000	0
21.430000	0.039000	0
21.435000	0.044000	0
21.440000	0.049000	0
21.445000	0.052000	0
21.450000	0.056000	0
21.455000	0.059000	0
21.460000	0.063000	0
21.465000	0.066000	0
21.470000	0.069000	0
21.475000	0.072000	0
21.480000	0.076000	0
21.485000	0.078000	0
21.490000	0.081000	0
21.495000	0.083000	0
21.500000	0.086000	0
21.505000	0.084000	0
21.510000	0.082000	0
21.515000	0.080000	0
21.520000	0.078000	0
21.525000	0.074000	0
21.530000	0.070000	0
21.535000	0.066000	0
21.540000	0.062000	0
21.545000	0.060000	0
21.550000	0.059000	0
21.555000	0.057000	0
21.560000	0.056000	0
21.565000	0.056000	0
21.570000	0.056000	0
21.575000	0.056000	0
21.580000	0.056000	0
21.585000	0.056000	0
21.590000	0.056000	0
21.595000	0.057000	0
21.600000	0.057000	0
21.605000	0.058000	0
21.610000	0.060000	0
21.615000	0.061000	0
21.620000	0.062000	0
21.625000	0.064000	0
21.630000	0.066000	0
21.635000	0.067000	0
21.640000	0.069000	0
21.645000	0.070000	0
21.650000	0.071000	0
21.655000	0.072000	0
21.660000	0.074000	0
21.665000	0.073000	0
21.670000	0.073000	0
21.675000	0.072000	0
21.680000	0.072000	0
21.685000	0.071000	0
21.690000	0.071000	0
21.695000	0.070000	0
21.700000	0.070000	0
21.705000	0.070000	0
21.710000	0.069000	0
21.715000	0.069000	0
21.720000	0.069000	0
21.725000	0.067000	0
21.730000	0.066000	0
21.735000	0.065000	0
21.740000	0.064000	0
21.745000	0.063000	0
21.750000	0.062000	0
21.755000	0.061000	0
21.760000	0.061000	0
21.765000	0.060000	0
21.770000	0.060000	0
21.775000	0.059000	0
21.780000	0.059000	0
21.785000	0.059000	0
21.790000	0.060000	0
21.795000	0.060000	0
21.800000	0.061000	0
21.805000	0.061000	0
21.810000	0.061000	0
21.815000	0.061000	0
21.820000	0.062000	0
21.825000	0.061000	0
21.830000	0.061000	0
21.835000	0.060000	0
21.840000	0.060000	0
21.845000	0.060000	0
21.850000	0.060000	0
21.855000	0.060000	0
21.860000	0.060000	0
21.865000	0.059000	0
21.870000	0.058000	0
21.875000	0.057000	0
21.880000	0.057000	0
21.885000	0.056000	0
21.890000	0.055000	0
21.895000	0.054000	0
21.900000	0.054000	0
21.905000	0.054000	0
21.910000	0.054000	0
21.915000	0.054000	0
21.920000	0.054000	0
21.925000	0.054000	0
21.930000	0.054000	0
21.935000	0.054000	0
21.940000	0.055000	0
21.945000	0.054000	0
21.950000	0.054000	0
21.955000	0.054000	0
21.960000	0.054000	0
21.965000	0.053000	0
21.970000	0.052000	0
21.975000	0.052000	0
21.980000	0.051000	0
21.985000	0.052000	0
21.990000	0.052000	0
21.995000	0.053000	0
22.000000	0.053000	0
22.005000	0.054000	0
22.010000	0.055000	0
22.015000	0.056000	0
22.020000	0.057000	0
22.025000	0.058000	0
22.030000	0.060000	0
22.035000	0.061000	0
22.040000	0.063000	0
22.045000	0.060000	0
22.050000	0.058000	0
22.055000	0.056000	0
22.060000	0.054000	0
22.065000	0.051000	0
22.070000	0.048000	0
22.075000	0.045000	0
22.080000	0.042000	0
22.085000	0.040000	0
22.090000	0.039000	0
22.095000	0.037000	0
22.100000	0.036000	0
22.105000	0.034000	0
22.110000	0.032000	0
22.115000	0.030000	0
22.120000	0.028000	0
22.125000	0.025000	0
22.130000	0.021000	0
22.135000	0.018000	0
22.140000	0.014000	0
22.145000	0.040000	0
22.150000	0.066000	0
22.155000	0.092000	0
22.160000	0.118000	0
22.165000	0.183000	0
22.170000	0.248000	0
22.175000	0.313000	0
22.180000	0.379000	0
22.185000	0.348000	1
22.190000	0.317000	0
22.195000	0.286000	0
22.200000	0.255000	0
22.205000	0.180000	0
22.210000	0.106000	0
22.215000	0.032000	0
22.220000	-0.041000	0
22.225000	-0.040000	0
22.230000	-0.039000	0
22.235000	-0.038000	0
22.240000	-0.037000	0
22.245000	-0.026000	0
22.250000	-0.016000	0
22.255000	-0.005000	0
22.260000	0.005000	0
22.265000	0.007000	0
22.270000	0.009000	0
22.275000	0.011000	0
22.280000	0.013000	0
22.285000	0.013000	0
22.290000	0.014000	0
22.295000	0.014000	0
22.300000	0.015000	0
22.305000	0.017000	0
22.310000	0.018000	0
22.315000	0.020000	0
22.320000	0.021000	0
22.325000	0.022000	0
22.330000	0.023000	0
22.335000	0.023000	0
22.340000	0.024000	0
22.345000	0.024000	0
22.350000	0.025000	0
22.355000	0.025000	0
22.360000	0.025000	0
22.365000	0.028000	0
22.370000	0.031000	0
22.375000	0.033000	0
22.380000	0.036000	0
22.385000	0.041000	0
22.390000	0.047000	0
22.395000	0.052000	0
22.400000	0.057000	0
22.405000	0.062000	0
22.410000	0.067000	0
22.415000	0.072000	0
22.420000	0.078000	0
22.425000	0.081000	0
22.430000	0.085000	0
22.435000	0.089000	0
22.440000	0.093000	0
22.445000	0.096000	0
22.450000	0.099000	0
22.455000	0.103000	0
22.460000	0.106000	0
22.465000	0.108000	0
22.470000	0.109000	0
22.475000	0.111000	0
22.480000	0.113000	0
22.485000	0.109000	0
22.490000	0.106000	0
22.495000	0.102000	0
22.500000	0.099000	0
22.505000	0.093000	0
22.510000	0.088000	0
22.515000	0.083000	0
22.520000	0.078000	0
22.525000	0.075000	0
22.530000	0.072000	0
22.535000	0.069000	0
22.540000	0.066000	0
22.545000	0.064000	0
22.550000	0.063000	0
22.555000	0.062000	0
22.560000	0.061000	0
22.565000	0.061000	0
22.570000	0.061000	0
22.575000	0.061000	0
22.580000	0.062000	0
22.585000	0.062000	0
22.590000	0.063000	0
22.595000	0.063000	0
22.600000	0.064000	0
22.605000	0.063000	0
22.610000	0.063000	0
22.615000	0.063000	0
22.620000	0.063000	0
22.625000	0.062000	0
22.630000	0.060000	0
22.635000	0.059000	0
22.640000	0.058000	0
22.645000	0.056000	0
22.650000	0.055000	0
22.655000	0.053000	0
22.660000	0.052000	0
22.665000	0.052000	0
22.670000	0.052000	0
22.675000	0.051000	0
22.680000	0.051000	0
22.685000	0.050000	0
22.690000	0.049000	0
22.695000	0.048000	0
22.700000	0.048000	0
22.705000	0.047000	0
22.710000	0.046000	0
22.715000	0.045000	0
22.720000	0.044000	0
22.725000	0.044000	0
22.730000	0.043000	0
22.735000	0.043000	0
22.740000	0.042000	0
22.745000	0.041000	0
22.750000	0.039000	0
22.755000	0.038000	0
22.760000	0.037000	0
22.765000	0.035000	0
22.770000	0.034000	0
22.775000	0.033000	0
22.780000	0.032000	0
22.785000	0.031000	0
22.790000	0.031000	0
22.795000	0.031000	0
22.800000	0.031000	0
22.805000	0.031000	0
22.810000	0.031000	0
22.815000	0.031000	0
22.820000	0.031000	0
22.825000	0.031000	0
22.830000	0.031000	0
22.835000	0.031000	0
22.840000	0.031000	0
22.845000	0.031000	0
22.850000	0.031000	0
22.855000	0.031000	0
22.860000	0.031000	0
22.865000	0.031000	0
22.870000	0.031000	0
22.875000	0.031000	0
22.880000	0.031000	0
22.885000	0.032000	0
22.890000	0.033000	0
22.895000	0.034000	0
22.900000	0.035000	0
22.905000	0.034000	0
22.910000	0.033000	0
22.915000	0.032000	0
22.920000	0.031000	0
22.925000	0.029000	0
22.930000	0.028000	0
22.935000	0.026000	0
22.940000	0.025000	0
22.945000	0.024000	0
22.950000	0.023000	0
22.955000	0.022000	0
22.960000	0.021000	0
22.965000	0.020000	0
22.970000	0.019000	0
22.975000	0.018000	0
22.980000	0.017000	0
22.985000	0.014000	0
22.990000	0.011000	0
22.995000	0.008000	0
23.000000	0.006000	0
23.005000	0.025000	0
23.010000	0.045000	0
23.015000	0.064000	0
23.020000	0.084000	0
23.025000	0.148000	0
23.030000	0.213000	0
23.035000	0.277000	0
23.040000	0.342000	0
23.045000	0.320000	1
23.050000	0.299000	0
23.055000	0.278000	0
23.060000	0.257000	0
23.065000	0.180000	0
23.070000	0.103000	0
23.075000	0.026000	0
23.080000	-0.050000	0
23.085000	-0.055000	0
23.090000	-0.061000	0
23.095000	-0.066000	0
23.100000	-0.072000	0
23.105000	-0.062000	0
23.110000	-0.051000	0
23.115000	-0.041000	0
23.120000	-0.030000	0
23.125000	-0.028000	0
23.130000	-0.026000	0
23.135000	-0.024000	0
23.140000	-0.022000	0
23.145000	-0.021000	0
23.150000	-0.021000	0
23.155000	-0.021000	0
23.160000	-0.021000	0
23.165000	-0.019000	0
23.170000	-0.018000	0
23.175000	-0.016000	0
23.180000	-0.015000	0
23.185000	-0.013000	0
23.190000	-0.011000	0
23.195000	-0.010000	0
23.200000	-0.008000	0
23.205000	-0.008000	0
23.210000	-0.007000	0
23.215000	-0.007000	0
23.220000	-0.007000	0
23.225000	-0.006000	0
23.230000	-0.005000	0
23.235000	-0.004000	0
23.240000	-0.003000	0
23.245000	0.001000	0
23.250000	0.005000	0
23.255000	0.009000	0
23.260000	0.013000	0
23.265000	0.020000	0
23.270000	0.026000	0
23.275000	0.033000	0
23.280000	0.040000	0
23.285000	0.043000	0
23.290000	0.047000	0
23.295000	0.051000	0
23.300000	0.055000	0
23.305000	0.059000	0
23.310000	0.062000	0
23.315000	0.066000	0
23.320000	0.070000	0
23.325000	0.074000	0
23.330000	0.078000	0
23.335000	0.082000	0
23.340000	0.086000	0
23.345000	0.086000	0
23.350000	0.086000	0
23.355000	0.085000	0
23.360000	0.085000	0
23.365000	0.081000	0
23.370000	0.078000	0
23.375000	0.074000	0
23.380000	0.071000	0
23.385000	0.068000	0
23.390000	0.066000	0
23.395000	0.063000	0
23.400000	0.061000	0
23.405000	0.059000	0
23.410000	0.058000	0
23.415000	0.057000	0
23.420000	0.056000	0
23.425000	0.056000	0
23.430000	0.055000	0
23.435000	0.055000	0
23.440000	0.055000	0
23.445000	0.056000	0
23.450000	0.057000	0
23.455000	0.058000	0
23.460000	0.059000	0
23.465000	0.060000	0
23.470000	0.061000	0
23.475000	0.062000	0
23.480000	0.064000	0
23.485000	0.065000	0
23.490000	0.066000	0
23.495000	0.067000	0
23.500000	0.068000	0
23.505000	0.069000	0
23.510000	0.071000	0
23.515000	0.072000	0
23.520000	0.073000	0
23.525000	0.074000	0
23.530000	0.075000	0
23.535000	0.076000	0
23.540000	0.077000	0
23.545000	0.077000	0
23.550000	0.076000	0
23.555000	0.076000	0
23.560000	0.075000	0
23.565000	0.074000	0
23.570000	0.073000	0
23.575000	0.072000	0
23.580000	0.071000	0
23.585000	0.073000	0
23.590000	0.075000	0
23.595000	0.077000	0
23.600000	0.080000	0
23.605000	0.083000	0
23.610000	0.086000	0
23.615000	0.089000	0
23.620000	0.092000	0
23.625000	0.090000	0
23.630000	0.088000	0
23.635000	0.086000	0
23.640000	0.085000	0
23.645000	0.080000	0
23.650000	0.076000	0
23.655000	0.071000	0
23.660000	0.067000	0
23.665000	0.065000	0
23.670000	0.062000	0
23.675000	0.060000	0
23.680000	0.057000	0
23.685000	0.057000	0
23.690000	0.057000	0
23.695000	0.057000	0
23.700000	0.057000	0
23.705000	0.053000	0
23.710000	0.049000	0
23.715000	0.045000	0
23.720000	0.041000	0
23.725000	0.078000	0
23.730000	0.116000	0
23.735000	0.153000	0
23.740000	0.191000	0
23.745000	0.245000	0
23.750000	0.299000	0
23.755000	0.353000	0
23.760000	0.408000	0
23.765000	0.368000	1
23.770000	0.328000	0
23.775000	0.289000	0
23.780000	0.249000	0
23.785000	0.187000	0
23.790000	0.126000	0
23.795000	0.064000	0
23.800000	0.003000	0
23.805000	0.000000	0
23.810000	-0.003000	0
23.815000	-0.006000	0
23.820000	-0.009000	0
23.825000	-0.001000	0
23.830000	0.007000	0
23.835000	0.015000	0
23.840000	0.023000	0
23.845000	0.024000	0
23.850000	0.025000	0
23.855000	0.027000	0
23.860000	0.028000	0
23.865000	0.028000	0
23.870000	0.028000	0
23.875000	0.028000	0
23.880000	0.028000	0
23.885000	0.029000	0
23.890000	0.031000	0
23.895000	0.032000	0
23.900000	0.033000	0
23.905000	0.034000	0
23.910000	0.035000	0
23.915000	0.036000	0
23.920000	0.037000	0
23.925000	0.037000	0
23.930000	0.037000	0
23.935000	0.037000	0
23.940000	0.037000	0
23.945000	0.037000	0
23.950000	0.038000	0
23.955000	0.038000	0
23.960000	0.039000	0
23.965000	0.041000	0
23.970000	0.043000	0
23.975000	0.045000	0
23.980000	0.047000	0
23.985000	0.050000	0
23.990000	0.053000	0
23.995000	0.056000	0
24.000000	0.060000	0
24.005000	0.063000	0
24.010000	0.067000	0
24.015000	0.070000	0
24.020000	0.074000	0
24.025000	0.078000	0
24.030000	0.083000	0
24.035000	0.087000	0
24.040000	0.091000	0
24.045000	0.094000	0
24.050000	0.097000	0
24.055000	0.100000	0
24.060000	0.103000	0
24.065000	0.102000	0
24.070000	0.101000	0
24.075000	0.100000	0
24.080000	0.099000	0
24.085000	0.095000	0
24.090000	0.092000	0
24.095000	0.088000	0
24.100000	0.084000	0
24.105000	0.082000	0
24.110000	0.080000	0
24.115000	0.077000	0
24.120000	0.075000	0
24.125000	0.075000	0
24.130000	0.075000	0
24.135000	0.075000	0
24.140000	0.075000	0
24.145000	0.076000	0
24.150000	0.078000	0
24.155000	0.079000	0
24.160000	0.080000	0
24.165000	0.082000	0
24.170000	0.084000	0
24.175000	0.086000	0
24.180000	0.088000	0
24.185000	0.089000	0
24.190000	0.090000	0
24.195000	0.090000	0
24.200000	0.091000	0
24.205000	0.090000	0
24.210000	0.090000	0
24.215000	0.089000	0
24.220000	0.089000	0
24.225000	0.088000	0
24.230000	0.088000	0
24.235000	0.087000	0
24.240000	0.087000	0
24.245000	0.087000	0
24.250000	0.087000	0
24.255000	0.087000	0
24.260000	0.087000	0
24.265000	0.086000	0
24.270000	0.085000	0
24.275000	0.084000	0
24.280000	0.083000	0
24.285000	0.081000	0
24.290000	0.080000	0
24.295000	0.079000	0
24.300000	0.078000	0
24.305000	0.076000	0
24.310000	0.075000	0
24.315000	0.073000	0
24.320000	0.072000	0
24.325000	0.071000	0
24.330000	0.070000	0
24.335000	0.069000	0
24.340000	0.068000	0
24.345000	0.068000	0
24.350000	0.068000	0
24.355000	0.068000	0
24.360000	0.068000	0
24.365000	0.068000	0
24.370000	0.069000	0
24.375000	0.069000	0
24.380000	0.069000	0
24.385000	0.069000	0
24.390000	0.069000	0
24.395000	0.069000	0
24.400000	0.069000	0
24.405000	0.068000	0
24.410000	0.067000	0
24.415000	0.066000	0
24.420000	0.066000	0
24.425000	0.065000	0
24.430000	0.064000	0
24.435000	0.064000	0
24.440000	0.063000	0
24.445000	0.064000	0
24.450000	0.065000	0
24.455000	0.066000	0
24.460000	0.068000	0
24.465000	0.069000	0
24.470000	0.070000	0
24.475000	0.071000	0
24.480000	0.072000	0
24.485000	0.071000	0
24.490000	0.070000	0
24.495000	0.069000	0
24.500000	0.068000	0
24.505000	0.067000	0
24.510000	0.066000	0
24.515000	0.065000	0
24.520000	0.064000	0
24.525000	0.062000	0
24.530000	0.061000	0
24.535000	0.060000	0
24.540000	0.059000	0
24.545000	0.056000	0
24.550000	0.053000	0
24.555000	0.050000	0
24.560000	0.048000	0
24.565000	0.057000	0
24.570000	0.066000	0
24.575000	0.075000	0
24.580000	0.085000	0
24.585000	0.150000	0
24.590000	0.216000	0
24.595000	0.282000	0
24.600000	0.348000	0
24.605000	0.349000	0
24.610000	0.350000	1
24.615000	0.351000	0
24.620000	0.352000	0
24.625000	0.272000	0
24.630000	0.193000	0
24.635000	0.113000	0
24.640000	0.034000	0
24.645000	0.014000	0
24.650000	-0.005000	0
24.655000	-0.024000	0
24.660000	-0.044000	0
24.665000	-0.035000	0
24.670000	-0.026000	0
24.675000	-0.017000	0
24.680000	-0.008000	0
24.685000	-0.005000	0
24.690000	-0.002000	0
24.695000	0.001000	0
24.700000	0.004000	0
24.705000	0.005000	0
24.710000	0.006000	0
24.715000	0.007000	0
24.720000	0.008000	0
24.725000	0.009000	0
24.730000	0.011000	0
24.735000	0.012000	0
24.740000	0.014000	0
24.745000	0.016000	0
24.750000	0.018000	0
24.755000	0.019000	0
24.760000	0.021000	0
24.765000	0.021000	0
24.770000	0.021000	0
24.775000	0.021000	0
24.780000	0.021000	0
24.785000	0.020000	0
24.790000	0.020000	0
24.795000	0.020000	0
24.800000	0.020000	0
24.805000	0.022000	0
24.810000	0.024000	0
24.815000	0.026000	0
24.820000	0.029000	0
24.825000	0.033000	0
24.830000	0.038000	0
24.835000	0.043000	0
24.840000	0.048000	0
24.845000	0.052000	0
24.850000	0.057000	0
24.855000	0.062000	0
24.860000	0.067000	0
24.865000	0.072000	0
24.870000	0.078000	0
24.875000	0.083000	0
24.880000	0.088000	0
24.885000	0.092000	0
24.890000	0.097000	0
24.895000	0.101000	0
24.900000	0.106000	0
24.905000	0.105000	0
24.910000	0.104000	0
24.915000	0.103000	0
24.920000	0.103000	0
24.925000	0.099000	0
24.930000	0.095000	0
24.935000	0.092000	0
24.940000	0.088000	0
24.945000	0.086000	0
24.950000	0.084000	0
24.955000	0.081000	0
24.960000	0.079000	0
24.965000	0.079000	0
24.970000	0.080000	0
24.975000	0.080000	0
24.980000	0.081000	0
24.985000	0.082000	0
24.990000	0.083000	0
24.995000	0.084000	0
25.000000	0.086000	0
25.005000	0.087000	0
25.010000	0.088000	0
25.015000	0.089000	0
25.020000	0.090000	0
25.025000	0.091000	0
25.030000	0.093000	0
25.035000	0.094000	0
25.040000	0.095000	0
25.045000	0.095000	0
25.050000	0.095000	0
25.055000	0.095000	0
25.060000	0.095000	0
25.065000	0.094000	0
25.070000	0.093000	0
25.075000	0.092000	0
25.080000	0.091000	0
25.085000	0.091000	0
25.090000	0.091000	0
25.095000	0.091000	0
25.100000	0.091000	0
25.105000	0.090000	0
25.110000	0.089000	0
25.115000	0.088000	0
25.120000	0.088000	0
25.125000	0.086000	0
25.130000	0.084000	0
25.135000	0.083000	0
25.140000	0.081000	0
25.145000	0.082000	0
25.150000	0.083000	0
25.155000	0.083000	0
25.160000	0.084000	0
25.165000	0.088000	0
25.170000	0.092000	0
25.175000	0.096000	0
25.180000	0.100000	0
25.185000	0.099000	0
25.190000	0.098000	0
25.195000	0.097000	0
25.200000	0.096000	0
25.205000	0.091000	0
25.210000	0.086000	0
25.215000	0.081000	0
25.220000	0.076000	0
25.225000	0.072000	0
25.230000	0.069000	0
25.235000	0.066000	0
25.240000	0.063000	0
25.245000	0.061000	0
25.250000	0.059000	0
25.255000	0.057000	0
25.260000	0.056000	0
25.265000	0.054000	0
25.270000	0.052000	0
25.275000	0.050000	0
25.280000	0.048000	0
25.285000	0.065000	0
25.290000	0.083000	0
25.295000	0.101000	0
25.300000	0.119000	0
25.305000	0.185000	0
25.310000	0.250000	0
25.315000	0.316000	0
25.320000	0.381000	0
25.325000	0.365000	0
25.330000	0.350000	1
25.335000	0.334000	0
25.340000	0.318000	0
25.345000	0.240000	0
25.350000	0.162000	0
25.355000	0.084000	0
25.360000	0.006000	0
25.365000	-0.002000	0
25.370000	-0.010000	0
25.375000	-0.019000	0
25.380000	-0.028000	0
25.385000	-0.017000	0
25.390000	-0.007000	0
25.395000	0.003000	0
25.400000	0.013000	0
25.405000	0.016000	0
25.410000	0.019000	0
25.415000	0.022000	0
25.420000	0.025000	0
25.425000	0.025000	0
25.430000	0.025000	0
25.435000	0.025000	0
25.440000	0.026000	0
25.445000	0.026000	0
25.450000	0.026000	0
25.455000	0.027000	0
25.460000	0.027000	0
25.465000	0.028000	0
25.470000	0.029000	0
25.475000	0.030000	0
25.480000	0.032000	0
25.485000	0.032000	0
25.490000	0.032000	0
25.495000	0.032000	0
25.500000	0.032000	0
25.505000	0.031000	0
25.510000	0.031000	0
25.515000	0.031000	0
25.520000	0.031000	0
25.525000	0.034000	0
25.530000	0.036000	0
25.535000	0.039000	0
25.540000	0.042000	0
25.545000	0.047000	0
25.550000	0.052000	0
25.555000	0.057000	0
25.560000	0.062000	0
25.565000	0.065000	0
25.570000	0.069000	0
25.575000	0.073000	0
25.580000	0.077000	0
25.585000	0.081000	0
25.590000	0.084000	0
25.595000	0.088000	0
25.600000	0.091000	0
25.605000	0.093000	0
25.610000	0.095000	0
25.615000	0.097000	0
25.620000	0.100000	0
25.625000	0.098000	0
25.630000	0.096000	0
25.635000	0.095000	0
25.640000	0.093000	0
25.645000	0.090000	0
25.650000	0.087000	0
25.655000	0.084000	0
25.660000	0.081000	0
25.665000	0.079000	0
25.670000	0.077000	0
25.675000	0.075000	0
25.680000	0.074000	0
25.685000	0.073000	0
25.690000	0.072000	0
25.695000	0.072000	0
25.700000	0.071000	0
25.705000	0.072000	0
25.710000	0.072000	0
25.715000	0.073000	0
25.720000	0.074000	0
25.725000	0.076000	0
25.730000	0.078000	0
25.735000	0.080000	0
25.740000	0.082000	0
25.745000	0.083000	0
25.750000	0.085000	0
25.755000	0.086000	0
25.760000	0.088000	0
25.765000	0.088000	0
25.770000	0.089000	0
25.775000	0.089000	0
25.780000	0.090000	0
25.785000	0.088000	0
25.790000	0.087000	0
25.795000	0.086000	0
25.800000	0.085000	0
25.805000	0.083000	0
25.810000	0.082000	0
25.815000	0.081000	0
25.820000	0.080000	0
25.825000	0.079000	0
25.830000	0.078000	0
25.835000	0.078000	0
25.840000	0.077000	0
25.845000	0.076000	0
25.850000	0.074000	0
25.855000	0.073000	0
25.860000	0.072000	0
25.865000	0.071000	0
25.870000	0.070000	0
25.875000	0.069000	0
25.880000	0.068000	0
25.885000	0.067000	0
25.890000	0.066000	0
25.895000	0.065000	0
25.900000	0.065000	0
25.905000	0.064000	0
25.910000	0.064000	0
25.915000	0.064000	0
25.920000	0.064000	0
25.925000	0.063000	0
25.930000	0.063000	0
25.935000	0.062000	0
25.940000	0.062000	0
25.945000	0.062000	0
25.950000	0.061000	0
25.955000	0.061000	0
25.960000	0.061000	0
25.965000	0.060000	0
25.970000	0.059000	0
25.975000	0.058000	0
25.980000	0.058000	0
25.985000	0.057000	0
25.990000	0.056000	0
25.995000	0.055000	0
26.000000	0.054000	0
26.005000	0.054000	0
26.010000	0.053000	0
26.015000	0.053000	0
26.020000	0.052000	0
26.025000	0.051000	0
26.030000	0.051000	0
26.035000	0.050000	0
26.040000	0.049000	0
26.045000	0.049000	0
26.050000	0.049000	0
26.055000	0.049000	0
26.060000	0.049000	0
26.065000	0.049000	0
26.070000	0.050000	0
26.075000	0.050000	0
26.080000	0.050000	0
26.085000	0.050000	0
26.090000	0.050000	0
26.095000	0.050000	0
26.100000	0.051000	0
26.105000	0.052000	0
26.110000	0.054000	0
26.115000	0.056000	0
26.120000	0.058000	0
26.125000	0.057000	0
26.130000	0.057000	0
26.135000	0.056000	0
26.140000	0.056000	0
26.145000	0.053000	0
26.150000	0.051000	0
26.155000	0.049000	0
26.160000	0.047000	0
26.165000	0.046000	0
26.170000	0.045000	0
26.175000	0.043000	0
26.180000	0.042000	0
26.185000	0.041000	0
26.190000	0.039000	0
26.195000	0.038000	0
26.200000	0.037000	0
26.205000	0.034000	0
26.210000	0.031000	0
26.215000	0.028000	0
26.220000	0.025000	0
26.225000	0.050000	0
26.230000	0.075000	0
26.235000	0.101000	0
26.240000	0.126000	0
26.245000	0.190000	0
26.250000	0.255000	0
26.255000	0.319000	0
26.260000	0.384000	0
26.265000	0.353000	1
26.270000	0.322000	0
26.275000	0.291000	0
26.280000	0.260000	0
26.285000	0.184000	0
26.290000	0.108000	0
26.295000	0.032000	0
26.300000	-0.043000	0
26.305000	-0.042000	0
26.310000	-0.042000	0
26.315000	-0.041000	0
26.320000	-0.041000	0
26.325000	-0.030000	0
26.330000	-0.020000	0
26.335000	-0.009000	0
26.340000	0.001000	0
26.345000	0.003000	0
26.350000	0.004000	0
26.355000	0.006000	0
26.360000	0.008000	0
26.365000	0.008000	0
26.370000	0.008000	0
26.375000	0.008000	0
26.380000	0.008000	0
26.385000	0.009000	0
26.390000	0.009000	0
26.395000	0.010000	0
26.400000	0.011000	0
26.405000	0.012000	0
26.410000	0.013000	0
26.415000	0.014000	0
26.420000	0.015000	0
26.425000	0.016000	0
26.430000	0.017000	0
26.435000	0.017000	0
26.440000	0.018000	0
26.445000	0.020000	0
26.450000	0.023000	0
26.455000	0.025000	0
26.460000	0.028000	0
26.465000	0.033000	0
26.470000	0.039000	0
26.475000	0.045000	0
26.480000	0.051000	0
26.485000	0.056000	0
26.490000	0.061000	0
26.495000	0.066000	0
26.500000	0.071000	0
26.505000	0.074000	0
26.510000	0.077000	0
26.515000	0.080000	0
26.520000	0.083000	0
26.525000	0.087000	0
26.530000	0.091000	0
26.535000	0.095000	0
26.540000	0.100000	0
26.545000	0.102000	0
26.550000	0.104000	0
26.555000	0.107000	0
26.560000	0.109000	0
26.565000	0.106000	0
26.570000	0.103000	0
26.575000	0.099000	0
26.580000	0.096000	0
26.585000	0.091000	0
26.590000	0.087000	0
26.595000	0.082000	0
26.600000	0.077000	0
26.605000	0.075000	0
26.610000	0.073000	0
26.615000	0.071000	0
26.620000	0.069000	0
26.625000	0.068000	0
26.630000	0.067000	0
26.635000	0.067000	0
26.640000	0.066000	0
26.645000	0.067000	0
26.650000	0.067000	0
26.655000	0.068000	0
26.660000	0.069000	0
26.665000	0.070000	0
26.670000	0.071000	0
26.675000	0.073000	0
26.680000	0.074000	0
26.685000	0.075000	0
26.690000	0.076000	0
26.695000	0.077000	0
26.700000	0.078000	0
26.705000	0.078000	0
26.710000	0.078000	0
26.715000	0.078000	0
26.720000	0.078000	0
26.725000	0.078000	0
26.730000	0.078000	0
26.735000	0.078000	0
26.740000	0.078000	0
26.745000	0.079000	0
26.750000	0.080000	0
26.755000	0.081000	0
26.760000	0.082000	0
26.765000	0.082000	0
26.770000	0.081000	0
26.775000	0.081000	0
26.780000	0.080000	0
26.785000	0.079000	0
26.790000	0.077000	0
26.795000	0.076000	0
26.800000	0.075000	0
26.805000	0.074000	0
26.810000	0.074000	0
26.815000	0.073000	0
26.820000	0.073000	0
26.825000	0.073000	0
26.830000	0.074000	0
26.835000	0.074000	0
26.840000	0.074000	0
26.845000	0.074000	0
26.850000	0.073000	0
26.855000	0.073000	0
26.860000	0.073000	0
26.865000	0.072000	0
26.870000	0.071000	0
26.875000	0.071000	0
26.880000	0.070000	0
26.885000	0.069000	0
26.890000	0.069000	0
26.895000	0.068000	0
26.900000	0.067000	0
26.905000	0.066000	0
26.910000	0.065000	0
26.915000	0.064000	0
26.920000	0.063000	0
26.925000	0.064000	0
26.930000	0.064000	0
26.935000	0.065000	0
26.940000	0.065000	0
26.945000	0.065000	0
26.950000	0.065000	0
26.955000	0.064000	0
26.960000	0.064000	0
26.965000	0.062000	0
26.970000	0.060000	0
26.975000	0.057000	0
26.980000	0.055000	0
26.985000	0.053000	0
26.990000	0.051000	0
26.995000	0.049000	0
27.000000	0.047000	0
27.005000	0.045000	0
27.010000	0.043000	0
27.015000	0.042000	0
27.020000	0.040000	0
27.025000	0.039000	0
27.030000	0.038000	0
27.035000	0.037000	0
27.040000	0.036000	0
27.045000	0.035000	0
27.050000	0.034000	0
27.055000	0.033000	0
27.060000	0.032000	0
27.065000	0.086000	0
27.070000	0.141000	0
27.075000	0.195000	0
27.080000	0.250000	0
27.085000	0.277000	0
27.090000	0.303000	0
27.095000	0.330000	1
27.100000	0.356000	0
27.105000	0.288000	0
27.110000	0.220000	0
27.115000	0.151000	0
27.120000	0.083000	0
27.125000	0.046000	0
27.130000	0.010000	0
27.135000	-0.026000	0
27.140000	-0.063000	0
27.145000	-0.055000	0
27.150000	-0.047000	0
27.155000	-0.039000	0
27.160000	-0.031000	0
27.165000	-0.026000	0
27.170000	-0.021000	0
27.175000	-0.015000	0
27.180000	-0.010000	0
27.185000	-0.010000	0
27.190000	-0.010000	0
27.195000	-0.010000	0
27.200000	-0.010000	0
27.205000	-0.010000	0
27.210000	-0.010000	0
27.215000	-0.010000	0
27.220000	-0.010000	0
27.225000	-0.009000	0
27.230000	-0.008000	0
27.235000	-0.007000	0
27.240000	-0.007000	0
27.245000	-0.006000	0
27.250000	-0.006000	0
27.255000	-0.006000	0
27.260000	-0.006000	0
27.265000	-0.006000	0
27.270000	-0.007000	0
27.275000	-0.008000	0
27.280000	-0.009000	0
27.285000	-0.007000	0
27.290000	-0.005000	0
27.295000	-0.004000	0
27.300000	-0.002000	0
27.305000	0.002000	0
27.310000	0.008000	0
27.315000	0.013000	0
27.320000	0.018000	0
27.325000	0.023000	0
27.330000	0.028000	0
27.335000	0.033000	0
27.340000	0.038000	0
27.345000	0.041000	0
27.350000	0.044000	0
27.355000	0.047000	0
27.360000	0.051000	0
27.365000	0.054000	0
27.370000	0.058000	0
27.375000	0.061000	0
27.380000	0.065000	0
27.385000	0.065000	0
27.390000	0.066000	0
27.395000	0.066000	0
27.400000	0.067000	0
27.405000	0.062000	0
27.410000	0.058000	0
27.415000	0.054000	0
27.420000	0.050000	0
27.425000	0.047000	0
27.430000	0.044000	0
27.435000	0.040000	0
27.440000	0.037000	0
27.445000	0.035000	0
27.450000	0.034000	0
27.455000	0.032000	0
27.460000	0.031000	0
27.465000	0.030000	0
27.470000	0.029000	0
27.475000	0.028000	0
27.480000	0.028000	0
27.485000	0.029000	0
27.490000	0.030000	0
27.495000	0.031000	0
27.500000	0.033000	0
27.505000	0.034000	0
27.510000	0.036000	0
27.515000	0.037000	0
27.520000	0.039000	0
27.525000	0.040000	0
27.530000	0.041000	0
27.535000	0.042000	0
27.540000	0.043000	0
27.545000	0.043000	0
27.550000	0.043000	0
27.555000	0.043000	0
27.560000	0.043000	0
27.565000	0.043000	0
27.570000	0.043000	0
27.575000	0.044000	0
27.580000	0.044000	0
27.585000	0.045000	0
27.590000	0.047000	0
27.595000	0.048000	0
27.600000	0.049000	0
27.605000	0.050000	0
27.610000	0.052000	0
27.615000	0.053000	0
27.620000	0.055000	0
27.625000	0.059000	0
27.630000	0.063000	0
27.635000	0.067000	0
27.640000	0.071000	0
27.645000	0.071000	0
27.650000	0.072000	0
27.655000	0.072000	0
27.660000	0.072000	0
27.665000	0.068000	0
27.670000	0.063000	0
27.675000	0.059000	0
27.680000	0.055000	0
27.685000	0.051000	0
27.690000	0.047000	0
27.695000	0.043000	0
27.700000	0.040000	0
27.705000	0.039000	0
27.710000	0.038000	0
27.715000	0.038000	0
27.720000	0.037000	0
27.725000	0.039000	0
27.730000	0.040000	0
27.735000	0.042000	0
27.740000	0.043000	0
27.745000	0.047000	0
27.750000	0.052000	0
27.755000	0.056000	0
27.760000	0.061000	0
27.765000	0.124000	0
27.770000	0.187000	0
27.775000	0.251000	0
27.780000	0.314000	0
27.785000	0.326000	0
27.790000	0.339000	1
27.795000	0.351000	0
27.800000	0.363000	0
27.805000	0.287000	0
27.810000	0.211000	0
27.815000	0.134000	0
27.820000	0.058000	0
27.825000	0.034000	0
27.830000	0.009000	0
27.835000	-0.015000	0
27.840000	-0.039000	0
27.845000	-0.030000	0
27.850000	-0.021000	0
27.855000	-0.012000	0
27.860000	-0.003000	0
27.865000	0.000000	0
27.870000	0.004000	0
27.875000	0.008000	0
27.880000	0.012000	0
27.885000	0.010000	0
27.890000	0.008000	0
27.895000	0.005000	0
27.900000	0.003000	0
27.905000	-0.001000	0
27.910000	-0.005000	0
27.915000	-0.010000	0
27.920000	-0.014000	0
27.925000	-0.018000	0
27.930000	-0.022000	0
27.935000	-0.026000	0
27.940000	-0.030000	0
27.945000	-0.034000	0
27.950000	-0.039000	0
27.955000	-0.043000	0
27.960000	-0.048000	0
27.965000	-0.052000	0
27.970000	-0.057000	0
27.975000	-0.061000	0
27.980000	-0.066000	0
27.985000	-0.067000	0
27.990000	-0.068000	0
27.995000	-0.070000	0
28.000000	-0.071000	0
28.005000	-0.066000	0
28.010000	-0.061000	0
28.015000	-0.056000	0
28.020000	-0.052000	0
28.025000	-0.043000	0
28.030000	-0.034000	0
28.035000	-0.025000	0
28.040000	-0.016000	0
28.045000	-0.007000	0
28.050000	0.001000	0
28.055000	0.010000	0
28.060000	0.019000	0
28.065000	0.027000	0
28.070000	0.035000	0
28.075000	0.043000	0
28.080000	0.051000	0
28.085000	0.055000	0
28.090000	0.059000	0
28.095000	0.063000	0
28.100000	0.067000	0
28.105000	0.067000	0
28.110000	0.066000	0
28.115000	0.066000	0
28.120000	0.066000	0
28.125000	0.065000	0
28.130000	0.064000	0
28.135000	0.063000	0
28.140000	0.062000	0
28.145000	0.062000	0
28.150000	0.062000	0
28.155000	0.061000	0
28.160000	0.061000	0
28.165000	0.063000	0
28.170000	0.064000	0
28.175000	0.066000	0
28.180000	0.068000	0
28.185000	0.071000	0
28.190000	0.074000	0
28.195000	0.077000	0
28.200000	0.080000	0
28.205000	0.081000	0
28.210000	0.082000	0
28.215000	0.084000	0
28.220000	0.085000	0
28.225000	0.085000	0
28.230000	0.086000	0
28.235000	0.086000	0
28.240000	0.086000	0
28.245000	0.086000	0
28.250000	0.085000	0
28.255000	0.085000	0
28.260000	0.085000	0
28.265000	0.083000	0
28.270000	0.082000	0
28.275000	0.081000	0
28.280000	0.080000	0
28.285000	0.079000	0
28.290000	0.077000	0
28.295000	0.076000	0
28.300000	0.075000	0
28.305000	0.073000	0
28.310000	0.071000	0
28.315000	0.069000	0
28.320000	0.068000	0
28.325000	0.065000	0
28.330000	0.063000	0
28.335000	0.061000	0
28.340000	0.059000	0
28.345000	0.056000	0
28.350000	0.053000	0
28.355000	0.051000	0
28.360000	0.048000	0
28.365000	0.046000	0
28.370000	0.044000	0
28.375000	0.042000	0
28.380000	0.041000	0
28.385000	0.039000	0
28.390000	0.038000	0
28.395000	0.037000	0
28.400000	0.036000	0
28.405000	0.037000	0
28.410000	0.037000	0
28.415000	0.038000	0
28.420000	0.039000	0
28.425000	0.039000	0
28.430000	0.039000	0
28.435000	0.039000	0
28.440000	0.040000	0
28.445000	0.037000	0
28.450000	0.034000	0
28.455000	0.031000	0
28.460000	0.028000	0
28.465000	0.023000	0
28.470000	0.019000	0
28.475000	0.014000	0
28.480000	0.010000	0
28.485000	0.006000	0
28.490000	0.002000	0
28.495000	-0.001000	0
28.500000	-0.005000	0
28.505000	-0.006000	0
28.510000	-0.007000	0
28.515000	-0.008000	0
28.520000	-0.009000	0
28.525000	-0.008000	0
28.530000	-0.007000	0
28.535000	-0.006000	0
28.540000	-0.005000	0
28.545000	-0.005000	0
28.550000	-0.004000	0
28.555000	-0.004000	0
28.560000	-0.004000	0
28.565000	0.006000	0
28.570000	0.016000	0
28.575000	0.026000	0
28.580000	0.036000	0
28.585000	0.103000	0
28.590000	0.171000	0
28.595000	0.238000	0
28.600000	0.306000	0
28.605000	0.313000	0
28.610000	0.321000	1
28.615000	0.328000	0
28.620000	0.336000	0
28.625000	0.260000	0
28.630000	0.185000	0
28.635000	0.109000	0
28.640000	0.034000	0
28.645000	0.015000	0
28.650000	-0.003000	0
28.655000	-0.022000	0
28.660000	-0.041000	0
28.665000	-0.028000	0
28.670000	-0.016000	0
28.675000	-0.003000	0
28.680000	0.009000	0
28.685000	0.015000	0
28.690000	0.021000	0
28.695000	0.027000	0
28.700000	0.033000	0
28.705000	0.035000	0
28.710000	0.037000	0
28.715000	0.038000	0
28.720000	0.040000	0
28.725000	0.041000	0
28.730000	0.042000	0
28.735000	0.043000	0
28.740000	0.045000	0
28.745000	0.045000	0
28.750000	0.046000	0
28.755000	0.046000	0
28.760000	0.047000	0
28.765000	0.047000	0
28.770000	0.047000	0
28.775000	0.047000	0
28.780000	0.047000	0
28.785000	0.047000	0
28.790000	0.047000	0
28.795000	0.047000	0
28.800000	0.047000	0
28.805000	0.049000	0
28.810000	0.051000	0
28.815000	0.053000	0
28.820000	0.056000	0
28.825000	0.060000	0
28.830000	0.064000	0
28.835000	0.068000	0
28.840000	0.072000	0
